Time	EMG	Muscle Force
0	0	0.22295
0.001	0	0.22295
0.002	0	0.22295
0.003	0	0.22295
0.004	0	0.22295
0.005	0	0.222569
0.006	0	0.222569
0.007	0	0.222188
0.008	0	0.222188
0.009	0	0.222188
0.01	0	0.221807
0.011	0	0.221807
0.012	0	0.221427
0.013	0	0.221427
0.014	0	0.221046
0.015	0	0.221046
0.016	0	0.220664
0.017	0	0.220664
0.018	0	0.220283
0.019	0	0.220283
0.02	0	0.220283
0.021	0	0.219902
0.022	0	0.219902
0.023	0	0.219902
0.024	0	0.219522
0.025	0	0.219522
0.026	0	0.219522
0.027	0	0.219522
0.028	0	0.219141
0.029	0	0.219141
0.03	0	0.219141
0.031	0	0.21876
0.032	0	0.21876
0.033	0	0.21876
0.034	0	0.21876
0.035	0	0.21876
0.036	0	0.21876
0.037	0	0.21876
0.038	0	0.218379
0.039	0	0.218379
0.04	0	0.218379
0.041	0	0.218379
0.042	0	0.218379
0.043	0	0.218379
0.044	0	0.218379
0.045	0	0.218379
0.046	0	0.217998
0.047	0	0.217998
0.048	0	0.217998
0.049	0	0.217998
0.05	0	0.217998
0.051	-1.34179	0.217998
0.052	-2.02972	0.217998
0.053	-0.360997	0.217998
0.054	0.735017	0.217998
0.055	0.887167	0.217617
0.056	0.674067	0.217617
0.057	0.325562	0.217617
0.058	-0.0422145	0.217998
0.059	-0.354239	0.217617
0.06	-0.555018	0.217617
0.061	-0.491211	0.217998
0.062	-0.324386	0.217617
0.063	-0.14656	0.217617
0.064	0.191623	0.217617
0.065	1.25946	0.217617
0.066	1.43185	0.217617
0.067	-0.0423906	0.217617
0.068	-1.66772	0.217617
0.069	-1.80572	0.217617
0.07	0.0984789	0.217617
0.071	0.801379	0.217617
0.072	0.879022	0.217617
0.073	0.603476	0.217617
0.074	0.19178	0.217617
0.075	-0.18865	0.217617
0.076	-0.458424	0.217617
0.077	-0.531147	0.217617
0.078	-0.444143	0.217617
0.079	-0.274583	0.217617
0.08	-0.13252	0.217617
0.081	0.660922	0.217617
0.082	1.56251	0.217617
0.083	1.04863	0.217617
0.084	-0.75415	0.217617
0.085	-2.09748	0.217617
0.086	-1.33012	0.217617
0.087	0.512091	0.217617
0.088	1.0619	0.217617
0.089	0.932746	0.217617
0.09	0.529486	0.217617
0.091	0.00916485	0.217617
0.092	-0.453186	0.217617
0.093	-0.583207	0.217617
0.094	-0.462327	0.217617
0.095	-0.383316	0.217617
0.096	-0.166292	0.217617
0.097	0.00679967	0.217617
0.098	1.00285	0.217617
0.099	1.55614	0.217617
0.1	0.506233	0.217617
0.101	-1.20273	0.217617
0.102	-2.09647	0.217617
0.103	-0.5693	0.217617
0.104	0.679271	0.217617
0.105	0.949493	0.217617
0.106	0.791784	0.217617
0.107	0.368685	0.217617
0.108	-0.10348	0.217617
0.109	-0.449901	0.217617
0.11	-0.549722	0.217617
0.111	-0.446159	0.217617
0.112	-0.332434	0.217617
0.113	-0.139728	0.217617
0.114	0.226284	0.217617
0.115	1.29198	0.217617
0.116	1.40649	0.217617
0.117	-0.0915182	0.217617
0.118	-1.57795	0.217617
0.119	-1.84694	0.217617
0.12	-0.0239081	0.217617
0.121	0.806377	0.217617
0.122	0.906313	0.217617
0.123	0.629342	0.217617
0.124	0.245566	0.217617
0.125	-0.120085	0.217617
0.126	-0.448303	0.217617
0.127	-0.543081	0.217617
0.128	-0.485026	0.217617
0.129	-0.305416	0.217617
0.13	-0.120506	0.217617
0.131	0.525784	0.217617
0.132	1.43469	0.217617
0.133	1.10678	0.217617
0.134	-0.48898	0.217617
0.135	-1.91483	0.217617
0.136	-1.43357	0.217617
0.137	0.448581	0.217617
0.138	1.03671	0.217617
0.139	0.847022	0.217617
0.14	0.386607	0.217617
0.141	-0.0296852	0.217617
0.142	-0.330352	0.217617
0.143	-0.506078	0.217617
0.144	-0.441656	0.217617
0.145	-0.277475	0.217617
0.146	-0.0828519	0.217617
0.147	-0.0495042	0.217617
0.148	0.773599	0.217617
0.149	1.46504	0.217617
0.15	0.594498	0.217617
0.151	-1.123	0.217617
0.152	-2.06535	0.217236
0.153	-0.591906	0.217617
0.154	0.732653	0.217236
0.155	0.943096	0.217236
0.156	0.760932	0.217236
0.157	0.310552	0.217236
0.158	-0.122096	0.217236
0.159	-0.408064	0.217236
0.16	-0.510348	0.217236
0.161	-0.450918	0.217236
0.162	-0.307266	0.217236
0.163	-0.121505	0.217236
0.164	0.159331	0.217236
0.165	1.25102	0.217236
0.166	1.43565	0.217236
0.167	0.00609062	0.217236
0.168	-1.62939	0.217236
0.169	-2.00506	0.217236
0.17	0.0050445	0.217617
0.171	0.943034	0.217236
0.172	0.99107	0.217617
0.173	0.700569	0.217617
0.174	0.157448	0.217236
0.175	-0.318956	0.217617
0.176	-0.534081	0.217236
0.177	-0.462716	0.217617
0.178	-0.359671	0.217236
0.179	-0.234357	0.217236
0.18	-0.139752	0.217617
0.181	0.432187	0.217236
0.182	1.44016	0.217236
0.183	1.18416	0.217236
0.184	-0.504294	0.217236
0.185	-1.92086	0.217236
0.186	-1.50628	0.217236
0.187	0.385665	0.217617
0.188	0.977554	0.217236
0.189	0.915671	0.217236
0.19	0.535269	0.217236
0.191	0.0597082	0.217236
0.192	-0.383824	0.217236
0.193	-0.601466	0.217236
0.194	-0.456913	0.217236
0.195	-0.273377	0.217236
0.196	-0.134058	0.217236
0.197	-0.106984	0.217236
0.198	0.786077	0.217236
0.199	1.52515	0.217236
0.2	0.70218	0.217236
0.201	-1.05154	0.217236
0.202	-2.09812	0.217236
0.203	-0.771308	0.217236
0.204	0.6939	0.217236
0.205	0.989704	0.217617
0.206	0.820989	0.217617
0.207	0.39045	0.217617
0.208	-0.102603	0.217617
0.209	-0.468531	0.217617
0.21	-0.614302	0.217617
0.211	-0.489303	0.217617
0.212	-0.265838	0.217617
0.213	-0.0376569	0.217617
0.214	0.171502	0.217617
0.215	1.24015	0.217617
0.216	1.44504	0.217617
0.217	0.0115852	0.217617
0.218	-1.60576	0.217617
0.219	-1.99345	0.217617
0.22	-0.083173	0.217617
0.221	0.860119	0.217617
0.222	1.02244	0.217617
0.223	0.74168	0.217617
0.224	0.169724	0.217617
0.225	-0.295607	0.217617
0.226	-0.46879	0.217617
0.227	-0.456416	0.217617
0.228	-0.374753	0.217617
0.229	-0.275727	0.217617
0.23	-0.155647	0.217617
0.231	0.371628	0.217617
0.232	1.34342	0.217617
0.233	1.22353	0.217617
0.234	-0.352457	0.217617
0.235	-1.79561	0.217617
0.236	-1.56967	0.217617
0.237	0.329648	0.217617
0.238	0.926806	0.217617
0.239	0.866518	0.217617
0.24	0.506532	0.217617
0.241	0.029773	0.217617
0.242	-0.33823	0.217617
0.243	-0.474843	0.217617
0.244	-0.412609	0.217617
0.245	-0.272099	0.217617
0.246	-0.15858	0.217617
0.247	-0.139982	0.217617
0.248	0.631069	0.217617
0.249	1.42022	0.217617
0.25	0.791245	0.217617
0.251	-0.88316	0.217617
0.252	-1.95994	0.217617
0.253	-0.843919	0.217617
0.254	0.636513	0.217617
0.255	0.945834	0.217617
0.256	0.778011	0.217617
0.257	0.310147	0.217617
0.258	-0.160171	0.217617
0.259	-0.425977	0.217617
0.26	-0.434903	0.217617
0.261	-0.299258	0.217617
0.262	-0.272377	0.217617
0.263	-0.144113	0.217617
0.264	0.0251604	0.217617
0.265	0.986364	0.217617
0.266	1.34028	0.217617
0.267	0.241161	0.217617
0.268	-1.27528	0.217617
0.269	-1.90065	0.217617
0.27	-0.181824	0.217617
0.271	0.779905	0.217617
0.272	0.869614	0.217617
0.273	0.573862	0.217617
0.274	0.220742	0.217617
0.275	-0.11914	0.217617
0.276	-0.385106	0.217617
0.277	-0.463358	0.217617
0.278	-0.432237	0.217617
0.279	-0.334499	0.217617
0.28	-0.185191	0.217617
0.281	0.362982	0.217617
0.282	1.4287	0.217617
0.283	1.33257	0.217617
0.284	-0.342601	0.217617
0.285	-1.85707	0.217617
0.286	-1.73017	0.217617
0.287	0.210218	0.217617
0.288	0.980381	0.217617
0.289	0.998789	0.217617
0.29	0.60986	0.217617
0.291	0.126924	0.217617
0.292	-0.337382	0.217617
0.293	-0.581641	0.217617
0.294	-0.525714	0.217617
0.295	-0.345211	0.217236
0.296	-0.18506	0.217617
0.297	-0.141551	0.217617
0.298	0.702528	0.217617
0.299	1.59205	0.217617
0.3	0.901241	0.217617
0.301	-0.903294	0.217236
0.302	-2.04085	0.217617
0.303	-1.01503	0.217617
0.304	0.538788	0.217617
0.305	0.928458	0.217617
0.306	0.799512	0.217617
0.307	0.474239	0.217617
0.308	0.0481926	0.217617
0.309	-0.383734	0.217617
0.31	-0.576785	0.217617
0.311	-0.510005	0.217617
0.312	-0.333597	0.217236
0.313	-0.0992292	0.217617
0.314	0.0703143	0.217617
0.315	1.07669	0.217617
0.316	1.45276	0.217617
0.317	0.228084	0.217617
0.318	-1.35885	0.217617
0.319	-1.95471	0.217617
0.32	-0.265405	0.217617
0.321	0.762237	0.217617
0.322	0.942468	0.217617
0.323	0.715427	0.217617
0.324	0.261595	0.217617
0.325	-0.214789	0.217617
0.326	-0.471483	0.217617
0.327	-0.510542	0.217617
0.328	-0.406205	0.217617
0.329	-0.223451	0.217617
0.33	-0.0994825	0.217617
0.331	0.273223	0.217617
0.332	1.26	0.217617
0.333	1.25751	0.217617
0.334	-0.212382	0.217617
0.335	-1.64232	0.217617
0.336	-1.65532	0.217617
0.337	0.181603	0.217617
0.338	0.807767	0.217617
0.339	0.836827	0.217617
0.34	0.519534	0.217617
0.341	0.14536	0.217617
0.342	-0.15292	0.217617
0.343	-0.369331	0.217617
0.344	-0.452728	0.217617
0.345	-0.454531	0.217617
0.346	-0.349721	0.217617
0.347	-0.197942	0.217617
0.348	0.648425	0.217617
0.349	1.55993	0.217617
0.35	1.00342	0.217236
0.351	-0.770752	0.217617
0.352	-1.97482	0.217617
0.353	-1.14333	0.217617
0.354	0.538873	0.217236
0.355	0.965419	0.217617
0.356	0.820246	0.217617
0.357	0.385061	0.217617
0.358	-0.065823	0.217236
0.359	-0.367379	0.217617
0.36	-0.485622	0.217617
0.361	-0.430803	0.217617
0.362	-0.304415	0.217617
0.363	-0.0807347	0.217617
0.364	0.0628021	0.217617
0.365	0.944758	0.217617
0.366	1.33466	0.217617
0.367	0.293887	0.217617
0.368	-1.20917	0.217236
0.369	-1.90213	0.217617
0.37	-0.356436	0.217617
0.371	0.723197	0.217617
0.372	0.934525	0.217236
0.373	0.712	0.217236
0.374	0.261872	0.217236
0.375	-0.143666	0.217236
0.376	-0.438425	0.217236
0.377	-0.533809	0.217236
0.378	-0.436985	0.217617
0.379	-0.262373	0.217236
0.38	-0.110169	0.217236
0.381	0.220435	0.217617
0.382	1.24897	0.217236
0.383	1.36356	0.217236
0.384	-0.042751	0.217236
0.385	-1.60638	0.217617
0.386	-1.85502	0.217236
0.387	-0.0120374	0.217236
0.388	0.785147	0.217617
0.389	0.952778	0.217617
0.39	0.719516	0.217617
0.391	0.211144	0.217617
0.392	-0.246039	0.217617
0.393	-0.500371	0.217236
0.394	-0.476948	0.217617
0.395	-0.419795	0.217617
0.396	-0.290449	0.217617
0.397	-0.164012	0.217617
0.398	0.555396	0.217617
0.399	1.4878	0.217617
0.4	1.07002	0.217617
0.401	-0.631743	0.217617
0.402	-1.90448	0.217617
0.403	-1.22773	0.217617
0.404	0.421437	0.217617
0.405	0.850831	0.217617
0.406	0.821622	0.217617
0.407	0.461611	0.217617
0.408	0.0228956	0.217617
0.409	-0.304824	0.217617
0.41	-0.418001	0.217617
0.411	-0.424811	0.217617
0.412	-0.382119	0.217617
0.413	-0.211755	0.217617
0.414	-0.118785	0.217617
0.415	0.900606	0.217617
0.416	1.49428	0.217617
0.417	0.585601	0.217617
0.418	-1.09363	0.217617
0.419	-2.03136	0.217617
0.42	-0.537525	0.217617
0.421	0.694386	0.217617
0.422	0.916308	0.217617
0.423	0.675978	0.217617
0.424	0.243075	0.217617
0.425	-0.133876	0.217617
0.426	-0.332701	0.217617
0.427	-0.417516	0.217998
0.428	-0.37885	0.217617
0.429	-0.273253	0.217617
0.43	-0.21157	0.217617
0.431	0.0535477	0.217617
0.432	1.20866	0.217617
0.433	1.40997	0.217617
0.434	0.0455493	0.217617
0.435	-1.54094	0.217617
0.436	-1.91232	0.217617
0.437	-0.019478	0.217617
0.438	0.860572	0.217617
0.439	0.986338	0.217617
0.44	0.683292	0.217617
0.441	0.173962	0.217617
0.442	-0.284895	0.217617
0.443	-0.540084	0.217617
0.444	-0.5643	0.217617
0.445	-0.396523	0.217617
0.446	-0.137663	0.217617
0.447	-0.101933	0.217617
0.448	0.549159	0.217617
0.449	1.46774	0.217617
0.45	1.04961	0.217617
0.451	-0.672258	0.217617
0.452	-1.96899	0.217617
0.453	-1.32689	0.217617
0.454	0.467401	0.217617
0.455	0.970655	0.217617
0.456	0.922904	0.217617
0.457	0.514066	0.217617
0.458	-0.0185293	0.217617
0.459	-0.409957	0.217617
0.46	-0.587258	0.217617
0.461	-0.463933	0.217617
0.462	-0.239903	0.217617
0.463	-0.0805168	0.217617
0.464	-0.134396	0.217617
0.465	0.93353	0.217617
0.466	1.50022	0.217617
0.467	0.51219	0.217617
0.468	-1.16072	0.217617
0.469	-2.06207	0.217617
0.47	-0.615352	0.217617
0.471	0.742216	0.217617
0.472	1.01815	0.217617
0.473	0.808594	0.217617
0.474	0.303969	0.217617
0.475	-0.210456	0.217617
0.476	-0.498584	0.217617
0.477	-0.540759	0.217617
0.478	-0.350395	0.217617
0.479	-0.12473	0.217617
0.48	-0.122684	0.217998
0.481	-0.00978518	0.217998
0.482	1.14929	0.217617
0.483	1.40509	0.217617
0.484	0.0814485	0.217617
0.485	-1.46132	0.217617
0.486	-1.91069	0.217617
0.487	-0.0894856	0.217617
0.488	0.836135	0.217617
0.489	0.923531	0.217617
0.49	0.631332	0.217617
0.491	0.208762	0.217617
0.492	-0.203974	0.217617
0.493	-0.466709	0.217617
0.494	-0.50423	0.217617
0.495	-0.378329	0.217617
0.496	-0.162345	0.217617
0.497	-0.235822	0.217617
0.498	0.367933	0.217617
0.499	1.41241	0.217617
0.5	1.1864	0.217617
0.501	-0.449319	0.217617
0.502	-1.82806	0.217617
0.503	-1.43688	0.217617
0.504	0.365284	0.217617
0.505	0.9036	0.217617
0.506	0.830918	0.217617
0.507	0.460304	0.217617
0.508	0.0328151	0.217617
0.509	-0.315355	0.217617
0.51	-0.47084	0.217617
0.511	-0.378643	0.217617
0.512	-0.213087	0.217617
0.513	-0.123867	0.217617
0.514	-0.350692	0.217617
0.515	0.685269	0.217617
0.516	1.48164	0.217617
0.517	0.744573	0.217617
0.518	-0.922286	0.217617
0.519	-1.97304	0.217617
0.52	-0.703744	0.217617
0.521	0.711989	0.217617
0.522	0.904762	0.217617
0.523	0.657716	0.217617
0.524	0.277057	0.217617
0.525	-0.111387	0.217617
0.526	-0.407177	0.217617
0.527	-0.468656	0.217617
0.528	-0.35031	0.217617
0.529	-0.178037	0.217617
0.53	-0.14033	0.217617
0.531	-0.107369	0.217617
0.532	1.1114	0.217617
0.533	1.51306	0.217617
0.534	0.198008	0.217617
0.535	-1.44145	0.217617
0.536	-1.98108	0.217617
0.537	-0.199741	0.217617
0.538	0.79258	0.217617
0.539	0.953307	0.217617
0.54	0.68316	0.217617
0.541	0.26079	0.217617
0.542	-0.172871	0.217617
0.543	-0.530012	0.217617
0.544	-0.579688	0.217617
0.545	-0.30503	0.217617
0.546	-0.0277918	0.217617
0.547	-0.258179	0.217617
0.548	0.223505	0.217236
0.549	1.3465	0.217236
0.55	1.19861	0.217236
0.551	-0.400403	0.217236
0.552	-1.78351	0.217617
0.553	-1.45355	0.217236
0.554	0.39545	0.217617
0.555	0.940827	0.217236
0.556	0.854135	0.217236
0.557	0.498984	0.217236
0.558	-0.011387	0.217617
0.559	-0.481483	0.217236
0.56	-0.565201	0.217617
0.561	-0.329096	0.217617
0.562	-0.089259	0.217617
0.563	0.014868	0.217617
0.564	-0.318753	0.217617
0.565	0.570545	0.217617
0.566	1.37318	0.217236
0.567	0.757706	0.217617
0.568	-0.861496	0.217617
0.569	-1.8955	0.217617
0.57	-0.784187	0.217617
0.571	0.643166	0.217617
0.572	0.925394	0.217617
0.573	0.705359	0.217617
0.574	0.268039	0.217617
0.575	-0.149432	0.217617
0.576	-0.407478	0.217617
0.577	-0.447078	0.217617
0.578	-0.23947	0.217617
0.579	-0.0924172	0.217617
0.58	-0.174055	0.217617
0.581	-0.255752	0.217617
0.582	0.968992	0.217617
0.583	1.41202	0.217617
0.584	0.271719	0.217617
0.585	-1.22057	0.217617
0.586	-1.84	0.217617
0.587	-0.26337	0.217617
0.588	0.714664	0.217617
0.589	0.977795	0.217617
0.59	0.677723	0.217617
0.591	0.119617	0.217617
0.592	-0.280917	0.217617
0.593	-0.44566	0.217617
0.594	-0.445352	0.217617
0.595	-0.273766	0.217617
0.596	-0.0715677	0.217617
0.597	-0.249018	0.217617
0.598	0.155484	0.217617
0.599	1.32702	0.217617
0.6	1.28622	0.217617
0.601	-0.308168	0.217236
0.602	-1.74037	0.217617
0.603	-1.65307	0.217617
0.604	0.221022	0.217617
0.605	0.95543	0.217617
0.606	1.01339	0.217236
0.607	0.576377	0.217236
0.608	0.00585136	0.217236
0.609	-0.420181	0.217236
0.61	-0.540021	0.217236
0.611	-0.406612	0.217236
0.612	-0.244462	0.217236
0.613	-0.0999351	0.217617
0.614	-0.265231	0.217617
0.615	0.678401	0.217617
0.616	1.51289	0.217236
0.617	0.852225	0.217236
0.618	-0.932863	0.217617
0.619	-2.01064	0.217236
0.62	-0.932601	0.217617
0.621	0.629548	0.217236
0.622	1.01107	0.217617
0.623	0.806553	0.217617
0.624	0.304979	0.217617
0.625	-0.110488	0.217617
0.626	-0.398717	0.217617
0.627	-0.484535	0.217617
0.628	-0.37367	0.217617
0.629	-0.198161	0.217617
0.63	-0.119817	0.217617
0.631	-0.219755	0.217617
0.632	1.0096	0.217617
0.633	1.53257	0.217617
0.634	0.393513	0.217617
0.635	-1.25249	0.217617
0.636	-2.03267	0.217617
0.637	-0.396514	0.217617
0.638	0.768029	0.217617
0.639	0.993444	0.217617
0.64	0.714702	0.217617
0.641	0.193442	0.217617
0.642	-0.239918	0.217617
0.643	-0.476903	0.217617
0.644	-0.466848	0.217236
0.645	-0.242795	0.217236
0.646	0.00573485	0.217236
0.647	-0.348161	0.217236
0.648	-0.00155722	0.217617
0.649	1.24036	0.217236
0.65	1.35517	0.217236
0.651	-0.135975	0.217236
0.652	-1.58884	0.217236
0.653	-1.62929	0.217236
0.654	0.150211	0.217236
0.655	0.845541	0.217236
0.656	0.858888	0.217236
0.657	0.497969	0.217236
0.658	0.074685	0.217236
0.659	-0.283523	0.217236
0.66	-0.478761	0.217236
0.661	-0.386656	0.217236
0.662	-0.133939	0.217236
0.663	-0.0286035	0.217236
0.664	-0.57578	0.217236
0.665	0.424205	0.217236
0.666	1.51069	0.217236
0.667	1.06281	0.217236
0.668	-0.667768	0.217236
0.669	-1.88701	0.217236
0.67	-1.09986	0.217236
0.671	0.493125	0.217236
0.672	0.933823	0.217236
0.673	0.768456	0.217236
0.674	0.334123	0.217236
0.675	-0.0755302	0.217236
0.676	-0.350644	0.217236
0.677	-0.48258	0.217236
0.678	-0.350221	0.217236
0.679	-0.0238227	0.217236
0.68	-0.0445011	0.217236
0.681	-0.419751	0.217236
0.682	0.77537	0.217236
0.683	1.35598	0.217236
0.684	0.513663	0.217236
0.685	-0.98472	0.217236
0.686	-1.83013	0.217236
0.687	-0.400237	0.217236
0.688	0.6395	0.217236
0.689	0.843302	0.217236
0.69	0.639201	0.217236
0.691	0.192869	0.217236
0.692	-0.217202	0.217236
0.693	-0.477402	0.217236
0.694	-0.383878	0.217236
0.695	-0.103078	0.217236
0.696	0.0982906	0.217236
0.697	-0.39783	0.217236
0.698	-0.238783	0.217236
0.699	1.10157	0.217236
0.7	1.37728	0.217236
0.701	0.0115367	0.217236
0.702	-1.46928	0.217236
0.703	-1.61317	0.217617
0.704	0.132035	0.217236
0.705	0.792426	0.217236
0.706	0.828725	0.217236
0.707	0.49066	0.217617
0.708	0.0556758	0.217617
0.709	-0.309254	0.217236
0.71	-0.465277	0.217617
0.711	-0.376986	0.217617
0.712	-0.124187	0.217236
0.713	0.0433029	0.217236
0.714	-0.482623	0.217236
0.715	0.337346	0.217236
0.716	1.38453	0.217236
0.717	1.04315	0.217236
0.718	-0.591758	0.217236
0.719	-1.82026	0.217236
0.72	-1.13694	0.217236
0.721	0.473146	0.217236
0.722	0.900178	0.217236
0.723	0.820826	0.217236
0.724	0.365015	0.217236
0.725	-0.149434	0.217236
0.726	-0.366057	0.217236
0.727	-0.414162	0.217236
0.728	-0.276771	0.217236
0.729	-0.0533397	0.217236
0.73	-0.118275	0.217236
0.731	-0.493963	0.217236
0.732	0.750099	0.217617
0.733	1.43145	0.217236
0.734	0.560265	0.217236
0.735	-0.984873	0.217617
0.736	-1.8336	0.217236
0.737	-0.427351	0.217236
0.738	0.748904	0.217236
0.739	0.892791	0.217617
0.74	0.610957	0.217236
0.741	0.0703582	0.217236
0.742	-0.426344	0.217236
0.743	-0.543831	0.217236
0.744	-0.0760299	0.217236
0.745	-0.0178151	0.217236
0.746	-0.437391	0.217236
0.747	-0.307916	0.217236
0.748	1.07563	0.217236
0.749	1.40946	0.217236
0.75	0.122281	0.217236
0.751	-1.3646	0.217236
0.752	-1.69464	0.217236
0.753	0.0536035	0.217236
0.754	0.803935	0.217236
0.755	0.802656	0.217236
0.756	0.475762	0.217236
0.757	0.0930762	0.217236
0.758	-0.257562	0.217236
0.759	-0.436085	0.217236
0.76	-0.383685	0.217236
0.761	-0.135023	0.217236
0.762	0.0456643	0.217236
0.763	-0.504297	0.217236
0.764	0.179652	0.217236
0.765	1.31938	0.217236
0.766	1.17568	0.217236
0.767	-0.414969	0.217236
0.768	-1.71783	0.217236
0.769	-1.23392	0.217236
0.77	0.3726	0.217236
0.771	0.824034	0.217236
0.772	0.761855	0.217236
0.773	0.380029	0.217236
0.774	-0.0569092	0.217236
0.775	-0.312714	0.217236
0.776	-0.386395	0.217236
0.777	-0.312299	0.217236
0.778	-0.0601251	0.217236
0.779	-0.0475731	0.217236
0.78	-0.577972	0.217236
0.781	0.573566	0.217236
0.782	1.44874	0.217236
0.783	0.777676	0.217236
0.784	-0.856689	0.217236
0.785	-1.8656	0.217236
0.786	-0.596424	0.217236
0.787	0.598856	0.217236
0.788	0.810322	0.217236
0.789	0.635492	0.217236
0.79	0.242624	0.217236
0.791	-0.147847	0.217236
0.792	-0.365574	0.217236
0.793	-0.386975	0.217236
0.794	-0.230261	0.217236
0.795	-0.0098296	0.217236
0.796	-0.292206	0.217236
0.797	-0.307642	0.217236
0.798	1.03349	0.217236
0.799	1.4369	0.217236
0.8	0.19966	0.217236
0.801	-1.31665	0.217236
0.802	-1.78888	0.217236
0.803	-0.0575777	0.217236
0.804	0.783982	0.217236
0.805	0.865626	0.217236
0.806	0.526296	0.217236
0.807	0.0655012	0.217236
0.808	-0.272431	0.217236
0.809	-0.432936	0.217236
0.81	-0.355383	0.217617
0.811	-0.117449	0.217236
0.812	0.0521488	0.217236
0.813	-0.5382	0.217617
0.814	0.144149	0.217617
0.815	1.34342	0.217617
0.816	1.21047	0.217617
0.817	-0.378334	0.217617
0.818	-1.72977	0.217617
0.819	-1.38059	0.217617
0.82	0.329501	0.217617
0.821	0.873818	0.217236
0.822	0.864614	0.217617
0.823	0.466804	0.217617
0.824	-0.00167628	0.217617
0.825	-0.344055	0.217617
0.826	-0.496075	0.217236
0.827	-0.40687	0.217617
0.828	-0.147646	0.217617
0.829	-0.0456024	0.217236
0.83	-0.483764	0.217617
0.831	0.70126	0.217617
0.832	1.50728	0.217617
0.833	0.785735	0.217617
0.834	-0.885232	0.217617
0.835	-1.9223	0.217617
0.836	-0.755421	0.217617
0.837	0.591532	0.217617
0.838	0.896504	0.217617
0.839	0.677428	0.217617
0.84	0.280769	0.217617
0.841	-0.145485	0.217617
0.842	-0.406384	0.217617
0.843	-0.414549	0.217617
0.844	-0.211178	0.217617
0.845	0.0123797	0.217617
0.846	-0.268653	0.217617
0.847	-0.352638	0.217617
0.848	1.00596	0.217617
0.849	1.43613	0.217617
0.85	0.259124	0.217617
0.851	-1.2853	0.217617
0.852	-1.82735	0.217617
0.853	-0.137503	0.217617
0.854	0.762385	0.217617
0.855	0.889556	0.217236
0.856	0.597866	0.217617
0.857	0.138845	0.217617
0.858	-0.256947	0.217617
0.859	-0.463095	0.217617
0.86	-0.436511	0.217236
0.861	-0.184427	0.217617
0.862	0.0535986	0.217236
0.863	-0.458081	0.217236
0.864	0.0943022	0.217236
0.865	1.31585	0.217236
0.866	1.28201	0.217236
0.867	-0.269296	0.217617
0.868	-1.68246	0.217236
0.869	-1.50492	0.217236
0.87	0.261449	0.217236
0.871	0.864676	0.217236
0.872	0.866037	0.217617
0.873	0.497284	0.217236
0.874	0.00534988	0.217236
0.875	-0.39008	0.217236
0.876	-0.535875	0.217236
0.877	-0.308093	0.217617
0.878	-0.0193788	0.217617
0.879	-0.0129579	0.217617
0.88	-0.587068	0.217617
0.881	0.543051	0.217236
0.882	1.47131	0.217617
0.883	0.856207	0.217236
0.884	-0.810033	0.217236
0.885	-1.87227	0.217617
0.886	-0.811345	0.217236
0.887	0.587657	0.217236
0.888	0.8512	0.217236
0.889	0.689805	0.217236
0.89	0.299009	0.217236
0.891	-0.119448	0.217236
0.892	-0.382931	0.217617
0.893	-0.423275	0.217236
0.894	-0.22011	0.217236
0.895	0.00943068	0.217236
0.896	-0.244067	0.217236
0.897	-0.43524	0.217236
0.898	0.910094	0.217236
0.899	1.41762	0.217236
0.9	0.352936	0.217236
0.901	-1.05657	0.217236
0.902	-1.75483	0.217236
0.903	-0.298767	0.217236
0.904	0.615116	0.217236
0.905	0.843279	0.217236
0.906	0.642733	0.217236
0.907	0.192054	0.217236
0.908	-0.243244	0.217236
0.909	-0.48257	0.217236
0.91	-0.424533	0.217236
0.911	-0.132227	0.217236
0.912	0.117969	0.217236
0.913	-0.435942	0.217236
0.914	-0.0669937	0.217236
0.915	1.18698	0.217236
0.916	1.29281	0.217236
0.917	-0.120401	0.217236
0.918	-1.55351	0.217236
0.919	-1.53078	0.217236
0.92	0.204018	0.217236
0.921	0.825935	0.217236
0.922	0.825241	0.217236
0.923	0.43851	0.217236
0.924	0.000464518	0.217236
0.925	-0.30313	0.217236
0.926	-0.409875	0.217236
0.927	-0.329417	0.217236
0.928	-0.0883529	0.217236
0.929	-0.026486	0.217236
0.93	-0.619726	0.217236
0.931	0.445654	0.217236
0.932	1.47587	0.217236
0.933	1.01381	0.217236
0.934	-0.692634	0.217236
0.935	-1.87238	0.217236
0.936	-1.01816	0.217236
0.937	0.479306	0.217236
0.938	0.879418	0.217236
0.939	0.777211	0.217236
0.94	0.398843	0.217236
0.941	-0.0428908	0.217236
0.942	-0.376089	0.217236
0.943	-0.499271	0.217236
0.944	-0.347396	0.217236
0.945	-0.108274	0.217236
0.946	-0.205606	0.217236
0.947	-0.400975	0.217236
0.948	0.991173	0.217236
0.949	1.59828	0.217236
0.95	0.449724	0.217236
0.951	-1.20106	0.217236
0.952	-1.90783	0.217236
0.953	-0.352932	0.217236
0.954	0.664458	0.217236
0.955	0.825167	0.217236
0.956	0.595061	0.217236
0.957	0.209752	0.217236
0.958	-0.125498	0.217236
0.959	-0.379267	0.217236
0.96	-0.367707	0.217236
0.961	-0.186897	0.217236
0.962	-0.0383626	0.217236
0.963	-0.451578	0.217236
0.964	-0.118161	0.217236
0.965	1.16073	0.217236
0.966	1.36225	0.217236
0.967	-0.0188924	0.217236
0.968	-1.46829	0.217236
0.969	-1.58718	0.217236
0.97	0.0997466	0.217236
0.971	0.753646	0.217236
0.972	0.842586	0.217236
0.973	0.554033	0.217236
0.974	0.0839079	0.217236
0.975	-0.33907	0.217236
0.976	-0.496415	0.217236
0.977	-0.378166	0.217236
0.978	-0.122006	0.217236
0.979	0.0189048	0.217236
0.98	-0.533624	0.217236
0.981	0.403594	0.217236
0.982	1.42407	0.217236
0.983	1.03604	0.217236
0.984	-0.615392	0.217236
0.985	-1.84569	0.217236
0.986	-1.07357	0.217236
0.987	0.498179	0.217236
0.988	0.857206	0.217236
0.989	0.726802	0.217236
0.99	0.382613	0.217236
0.991	-0.0462784	0.217236
0.992	-0.380296	0.217236
0.993	-0.503541	0.217236
0.994	-0.297548	0.217236
0.995	-0.0126642	0.217236
0.996	-0.0898546	0.217236
0.997	-0.4649	0.217236
0.998	0.806158	0.217236
0.999	1.49788	0.217236
1	0.526118	0.217236
1.001	-1.10839	0.217236
1.002	-1.9508	0.217236
1.003	-0.395898	0.217236
1.004	0.749949	0.217236
1.005	0.852039	0.217236
1.006	0.582737	0.217236
1.007	0.250918	0.217236
1.008	-0.119011	0.217236
1.009	-0.427493	0.217236
1.01	-0.464196	0.217236
1.011	-0.236266	0.217236
1.012	-0.0280351	0.217236
1.013	-0.37859	0.217236
1.014	-0.0686698	0.217236
1.015	1.21652	0.217617
1.016	1.33137	0.217236
1.017	-0.048135	0.217236
1.018	-1.47232	0.217236
1.019	-1.63554	0.217236
1.02	0.127614	0.217236
1.021	0.805833	0.217236
1.022	0.821056	0.217617
1.023	0.460595	0.217236
1.024	0.0407615	0.217617
1.025	-0.249049	0.217617
1.026	-0.417015	0.217236
1.027	-0.371207	0.217236
1.028	-0.163523	0.217236
1.029	0.0388418	0.217236
1.03	-0.474793	0.217236
1.031	0.310098	0.217617
1.032	1.30347	0.217236
1.033	0.989286	0.217236
1.034	-0.483057	0.217236
1.035	-1.67314	0.217236
1.036	-1.11089	0.217236
1.037	0.455624	0.217236
1.038	0.758923	0.217236
1.039	0.663183	0.217236
1.04	0.418334	0.217236
1.041	0.0241084	0.217236
1.042	-0.322287	0.217236
1.043	-0.471376	0.217236
1.044	-0.334837	0.217236
1.045	-0.113227	0.217236
1.046	-0.102932	0.217617
1.047	-0.426416	0.217236
1.048	0.785396	0.217617
1.049	1.49238	0.217236
1.05	0.599934	0.217236
1.051	-1.07748	0.217236
1.052	-1.96832	0.217236
1.053	-0.484077	0.217236
1.054	0.756454	0.217236
1.055	0.910683	0.217236
1.056	0.605621	0.217236
1.057	0.223976	0.217236
1.058	-0.153936	0.217236
1.059	-0.420047	0.217236
1.06	-0.453559	0.217236
1.061	-0.289743	0.217236
1.062	-0.0967895	0.217236
1.063	-0.216436	0.217236
1.064	-0.0605774	0.217236
1.065	1.16658	0.217236
1.066	1.38222	0.217236
1.067	0.0197812	0.217236
1.068	-1.50237	0.217236
1.069	-1.78853	0.217617
1.07	0.0693803	0.217236
1.071	0.788589	0.217617
1.072	0.843615	0.217617
1.073	0.601715	0.217617
1.074	0.17837	0.217617
1.075	-0.243805	0.217617
1.076	-0.45876	0.217617
1.077	-0.486132	0.217236
1.078	-0.308982	0.217617
1.079	-0.0730415	0.217617
1.08	-0.30011	0.217236
1.081	0.376005	0.217617
1.082	1.4048	0.217617
1.083	1.0851	0.217617
1.084	-0.548226	0.217617
1.085	-1.79253	0.217236
1.086	-1.2534	0.217236
1.087	0.425852	0.217236
1.088	0.844699	0.217236
1.089	0.816855	0.217236
1.09	0.425568	0.217236
1.091	-0.0409627	0.217236
1.092	-0.361516	0.217236
1.093	-0.41882	0.217236
1.094	-0.320638	0.217236
1.095	-0.189267	0.217236
1.096	-0.104081	0.217236
1.097	-0.381976	0.217617
1.098	0.721733	0.217236
1.099	1.48345	0.217236
1.1	0.640298	0.217236
1.101	-0.981314	0.217236
1.102	-1.88174	0.217236
1.103	-0.621128	0.217236
1.104	0.618515	0.217617
1.105	0.899264	0.217617
1.106	0.713853	0.217617
1.107	0.292345	0.217617
1.108	-0.147394	0.217617
1.109	-0.442345	0.217617
1.11	-0.478638	0.217617
1.111	-0.309859	0.217617
1.112	-0.100786	0.217617
1.113	-0.189054	0.217617
1.114	-0.113762	0.217617
1.115	1.11918	0.217617
1.116	1.43648	0.217617
1.117	0.135637	0.217617
1.118	-1.44138	0.217617
1.119	-1.90219	0.217617
1.12	-0.0753599	0.217617
1.121	0.818594	0.217236
1.122	0.920025	0.217617
1.123	0.642812	0.217617
1.124	0.163865	0.217617
1.125	-0.261388	0.217617
1.126	-0.467533	0.217617
1.127	-0.438328	0.217617
1.128	-0.295486	0.217617
1.129	-0.128196	0.217617
1.13	-0.314725	0.217617
1.131	0.309056	0.217617
1.132	1.36815	0.217617
1.133	1.19688	0.217617
1.134	-0.406358	0.217617
1.135	-1.76372	0.217617
1.136	-1.41484	0.217617
1.137	0.338109	0.217617
1.138	0.857953	0.217617
1.139	0.828063	0.217617
1.14	0.473712	0.217617
1.141	0.0289756	0.217617
1.142	-0.329067	0.217617
1.143	-0.475643	0.217617
1.144	-0.39124	0.217617
1.145	-0.189033	0.217617
1.146	-0.0737374	0.217617
1.147	-0.358433	0.217617
1.148	0.64102	0.217617
1.149	1.44378	0.217617
1.15	0.804418	0.217617
1.151	-0.839161	0.217617
1.152	-1.95186	0.217617
1.153	-0.849904	0.217617
1.154	0.57303	0.217617
1.155	0.967105	0.217617
1.156	0.786616	0.217617
1.157	0.290052	0.217617
1.158	-0.119226	0.217617
1.159	-0.397853	0.217617
1.16	-0.482911	0.217617
1.161	-0.32399	0.217617
1.162	-0.148896	0.217617
1.163	-0.205454	0.217617
1.164	-0.166	0.217617
1.165	1.09272	0.217617
1.166	1.46023	0.217617
1.167	0.225403	0.217617
1.168	-1.32629	0.217617
1.169	-1.89059	0.217617
1.17	-0.213884	0.217617
1.171	0.726993	0.217236
1.172	0.942902	0.217617
1.173	0.690068	0.217617
1.174	0.198325	0.217617
1.175	-0.274233	0.217617
1.176	-0.497854	0.217617
1.177	-0.468039	0.217617
1.178	-0.233498	0.217236
1.179	-0.0296727	0.217236
1.18	-0.294726	0.217617
1.181	0.147127	0.217617
1.182	1.28269	0.217617
1.183	1.23409	0.217617
1.184	-0.327728	0.217236
1.185	-1.70181	0.217617
1.186	-1.45432	0.217617
1.187	0.345838	0.217617
1.188	0.864386	0.217617
1.189	0.776012	0.217617
1.19	0.469236	0.217236
1.191	0.0517045	0.217617
1.192	-0.346982	0.217617
1.193	-0.466904	0.217617
1.194	-0.386314	0.217617
1.195	-0.163317	0.217617
1.196	-0.036567	0.217617
1.197	-0.395719	0.217617
1.198	0.542452	0.217617
1.199	1.44208	0.217617
1.2	0.898694	0.217617
1.201	-0.801569	0.217236
1.202	-1.95775	0.217617
1.203	-0.862556	0.217617
1.204	0.576987	0.217236
1.205	0.866122	0.217617
1.206	0.742018	0.217617
1.207	0.365437	0.217617
1.208	-0.0705888	0.217617
1.209	-0.365661	0.217236
1.21	-0.465144	0.217617
1.211	-0.370237	0.217617
1.212	-0.181646	0.217617
1.213	-0.143932	0.217236
1.214	-0.230492	0.217617
1.215	0.988111	0.217617
1.216	1.47552	0.217617
1.217	0.345671	0.217617
1.218	-1.25781	0.217617
1.219	-1.92325	0.217617
1.22	-0.229466	0.217617
1.221	0.764265	0.217617
1.222	0.877229	0.217617
1.223	0.600276	0.217617
1.224	0.165912	0.217236
1.225	-0.213142	0.217617
1.226	-0.416918	0.217617
1.227	-0.422004	0.217617
1.228	-0.250243	0.217617
1.229	-0.06101	0.217617
1.23	-0.283921	0.217617
1.231	0.0729382	0.217617
1.232	1.23096	0.217236
1.233	1.26108	0.217617
1.234	-0.21219	0.217236
1.235	-1.5889	0.217617
1.236	-1.585	0.217617
1.237	0.191008	0.217617
1.238	0.86626	0.217617
1.239	0.908015	0.217617
1.24	0.515006	0.217617
1.241	0.0385365	0.217617
1.242	-0.329591	0.217617
1.243	-0.521104	0.217617
1.244	-0.41254	0.217617
1.245	-0.172917	0.217617
1.246	-0.0397151	0.217617
1.247	-0.363707	0.217617
1.248	0.525274	0.217617
1.249	1.46501	0.217617
1.25	0.904829	0.217617
1.251	-0.802065	0.217617
1.252	-1.91081	0.217617
1.253	-0.953693	0.217617
1.254	0.598289	0.217617
1.255	0.916826	0.217617
1.256	0.716802	0.217617
1.257	0.317031	0.217617
1.258	-0.0778291	0.217617
1.259	-0.335731	0.217617
1.26	-0.437182	0.217617
1.261	-0.326846	0.217617
1.262	-0.184476	0.217617
1.263	-0.213417	0.217617
1.264	-0.294849	0.217617
1.265	0.971304	0.217617
1.266	1.55747	0.217617
1.267	0.473806	0.217617
1.268	-1.23196	0.217617
1.269	-2.01837	0.217617
1.27	-0.372695	0.217617
1.271	0.731275	0.217617
1.272	0.928153	0.217617
1.273	0.690939	0.217617
1.274	0.220615	0.217617
1.275	-0.213603	0.217617
1.276	-0.443451	0.217617
1.277	-0.431178	0.217617
1.278	-0.288494	0.217617
1.279	-0.107835	0.217617
1.28	-0.268923	0.217617
1.281	0.0328289	0.217617
1.282	1.24104	0.217617
1.283	1.36492	0.217617
1.284	-0.117866	0.217236
1.285	-1.61924	0.217617
1.286	-1.72724	0.217617
1.287	0.165828	0.217617
1.288	0.932328	0.217617
1.289	0.873391	0.217617
1.29	0.480329	0.217617
1.291	0.0587132	0.217617
1.292	-0.256514	0.217617
1.293	-0.452398	0.217617
1.294	-0.41853	0.217617
1.295	-0.228513	0.217617
1.296	-0.067471	0.217617
1.297	-0.377976	0.217617
1.298	0.421799	0.217617
1.299	1.41046	0.217617
1.3	1.02154	0.217617
1.301	-0.626788	0.217617
1.302	-1.80943	0.217617
1.303	-1.08926	0.217617
1.304	0.43531	0.217617
1.305	0.865136	0.217617
1.306	0.796031	0.217617
1.307	0.377839	0.217617
1.308	-0.0428127	0.217617
1.309	-0.362456	0.217617
1.31	-0.488432	0.217617
1.311	-0.340006	0.217617
1.312	-0.158074	0.217617
1.313	-0.13399	0.217617
1.314	-0.285997	0.217617
1.315	0.90753	0.217617
1.316	1.46605	0.217617
1.317	0.502028	0.217617
1.318	-1.11278	0.217617
1.319	-1.97017	0.217617
1.32	-0.516575	0.217617
1.321	0.677293	0.217617
1.322	0.937201	0.217617
1.323	0.713035	0.217617
1.324	0.299235	0.217617
1.325	-0.123751	0.217617
1.326	-0.450143	0.217617
1.327	-0.534467	0.217236
1.328	-0.320549	0.217617
1.329	-0.0822534	0.217236
1.33	-0.248205	0.217236
1.331	-0.0694523	0.217236
1.332	1.17691	0.217236
1.333	1.4201	0.217236
1.334	0.0542266	0.217236
1.335	-1.48711	0.217236
1.336	-1.78978	0.217236
1.337	0.0409799	0.217617
1.338	0.807178	0.217236
1.339	0.8517	0.217236
1.34	0.556968	0.217236
1.341	0.128124	0.217617
1.342	-0.264446	0.217617
1.343	-0.482478	0.217617
1.344	-0.398527	0.217236
1.345	-0.193875	0.217617
1.346	-0.0479592	0.217617
1.347	-0.376876	0.217617
1.348	0.318766	0.217617
1.349	1.372	0.217617
1.35	1.06519	0.217617
1.351	-0.539939	0.217617
1.352	-1.79541	0.217617
1.353	-1.21508	0.217617
1.354	0.474611	0.217617
1.355	0.904207	0.217617
1.356	0.784707	0.217617
1.357	0.372935	0.217617
1.358	-0.0568447	0.217617
1.359	-0.372815	0.217617
1.36	-0.459199	0.217617
1.361	-0.32917	0.217617
1.362	-0.159383	0.217617
1.363	-0.0653465	0.217617
1.364	-0.335725	0.217617
1.365	0.76125	0.217617
1.366	1.45438	0.217617
1.367	0.610894	0.217617
1.368	-1.02896	0.217617
1.369	-1.98507	0.217617
1.37	-0.598768	0.217617
1.371	0.730131	0.217617
1.372	0.969365	0.217617
1.373	0.704841	0.217617
1.374	0.234074	0.217617
1.375	-0.192077	0.217617
1.376	-0.444418	0.217617
1.377	-0.485529	0.217617
1.378	-0.27695	0.217617
1.379	-0.050824	0.217617
1.38	-0.209904	0.217617
1.381	-0.121535	0.217617
1.382	1.13739	0.217617
1.383	1.40934	0.217617
1.384	0.0606722	0.217617
1.385	-1.44575	0.217617
1.386	-1.80323	0.217617
1.387	-0.0352571	0.217617
1.388	0.773714	0.217617
1.389	0.906365	0.217617
1.39	0.656543	0.217617
1.391	0.180631	0.217617
1.392	-0.320519	0.217617
1.393	-0.536905	0.217617
1.394	-0.407276	0.217617
1.395	-0.193168	0.217617
1.396	-0.047478	0.217617
1.397	-0.376126	0.217617
1.398	0.216978	0.217617
1.399	1.31889	0.217617
1.4	1.21837	0.217617
1.401	-0.360216	0.217617
1.402	-1.73311	0.217617
1.403	-1.35695	0.217617
1.404	0.31521	0.217617
1.405	0.794944	0.217617
1.406	0.812665	0.217617
1.407	0.474865	0.217236
1.408	0.0292596	0.217617
1.409	-0.2965	0.217617
1.41	-0.481293	0.217617
1.411	-0.417989	0.217617
1.412	-0.187053	0.217617
1.413	-0.0517201	0.217617
1.414	-0.353261	0.217617
1.415	0.728104	0.217617
1.416	1.48653	0.217617
1.417	0.67221	0.217617
1.418	-1.02265	0.217236
1.419	-1.97538	0.217617
1.42	-0.669618	0.217617
1.421	0.702988	0.217617
1.422	0.992642	0.217617
1.423	0.743694	0.217617
1.424	0.240644	0.217617
1.425	-0.186837	0.217617
1.426	-0.455058	0.217617
1.427	-0.506948	0.217617
1.428	-0.301349	0.217617
1.429	-0.0707899	0.217617
1.43	-0.138109	0.217617
1.431	-0.100477	0.217617
1.432	1.09955	0.217617
1.433	1.34418	0.217617
1.434	0.111702	0.217617
1.435	-1.34891	0.217617
1.436	-1.89877	0.217617
1.437	-0.0894863	0.217617
1.438	0.883258	0.217617
1.439	0.927395	0.217617
1.44	0.559861	0.217617
1.441	0.0780099	0.217617
1.442	-0.247329	0.217617
1.443	-0.397495	0.217617
1.444	-0.386064	0.217617
1.445	-0.254788	0.217617
1.446	-0.138617	0.217617
1.447	-0.382842	0.217617
1.448	0.2197	0.217617
1.449	1.3867	0.217617
1.45	1.27964	0.217617
1.451	-0.375155	0.217617
1.452	-1.77543	0.217617
1.453	-1.4704	0.217617
1.454	0.326704	0.217617
1.455	0.851442	0.217617
1.456	0.872773	0.217617
1.457	0.535703	0.217617
1.458	0.0438633	0.217617
1.459	-0.397412	0.217617
1.46	-0.575973	0.217617
1.461	-0.422315	0.217617
1.462	-0.10889	0.217617
1.463	0.0320975	0.217617
1.464	-0.336995	0.217617
1.465	0.589272	0.217617
1.466	1.41607	0.217617
1.467	0.769653	0.217617
1.468	-0.89555	0.217617
1.469	-1.92637	0.217617
1.47	-0.799378	0.217617
1.471	0.647451	0.217617
1.472	0.961257	0.217617
1.473	0.760038	0.217617
1.474	0.240842	0.217617
1.475	-0.178592	0.217617
1.476	-0.397909	0.217617
1.477	-0.423132	0.217617
1.478	-0.290317	0.217617
1.479	-0.118927	0.217617
1.48	-0.171593	0.217617
1.481	-0.230476	0.217617
1.482	1.02225	0.217617
1.483	1.42338	0.217617
1.484	0.232295	0.217617
1.485	-1.2603	0.217617
1.486	-1.83093	0.217617
1.487	-0.169113	0.217617
1.488	0.753456	0.217617
1.489	0.859648	0.217617
1.49	0.565712	0.217617
1.491	0.1214	0.217617
1.492	-0.215719	0.217617
1.493	-0.377308	0.217617
1.494	-0.362586	0.217617
1.495	-0.234353	0.217617
1.496	-0.105145	0.217617
1.497	-0.351538	0.217617
1.498	0.0614794	0.217617
1.499	1.28398	0.217617
1.5	1.30948	0.217617
1.501	-0.205562	0.217617
1.502	-1.66722	0.217617
1.503	-1.58363	0.217617
1.504	0.24204	0.217617
1.505	0.826973	0.217617
1.506	0.873784	0.217617
1.507	0.535681	0.217617
1.508	0.0671474	0.217617
1.509	-0.279405	0.217617
1.51	-0.47036	0.217617
1.511	-0.443683	0.217617
1.512	-0.265071	0.217617
1.513	-0.119369	0.217617
1.514	-0.3414	0.217617
1.515	0.600729	0.217617
1.516	1.44667	0.217617
1.517	0.932297	0.217617
1.518	-0.753354	0.217617
1.519	-1.90976	0.217617
1.52	-0.960892	0.217617
1.521	0.541126	0.217617
1.522	0.883707	0.217617
1.523	0.781637	0.217617
1.524	0.368043	0.217617
1.525	-0.11854	0.217617
1.526	-0.444267	0.217617
1.527	-0.488406	0.217617
1.528	-0.331964	0.217617
1.529	-0.101347	0.217617
1.53	-0.0527431	0.217617
1.531	-0.150464	0.217617
1.532	0.957766	0.217617
1.533	1.36052	0.217617
1.534	0.238421	0.217617
1.535	-1.30857	0.217236
1.536	-1.92881	0.217617
1.537	-0.205182	0.217617
1.538	0.893387	0.217617
1.539	0.940056	0.217617
1.54	0.619919	0.217617
1.541	0.179069	0.217617
1.542	-0.288221	0.217617
1.543	-0.519763	0.217236
1.544	-0.460473	0.217617
1.545	-0.22149	0.217617
1.546	0.00937694	0.217617
1.547	-0.196394	0.217617
1.548	0.0242056	0.217617
1.549	1.11573	0.217236
1.55	1.27611	0.217236
1.551	-0.109402	0.217617
1.552	-1.56992	0.217236
1.553	-1.66285	0.217617
1.554	0.198846	0.217236
1.555	0.874565	0.217617
1.556	0.884442	0.217617
1.557	0.547343	0.217236
1.558	0.0674297	0.217617
1.559	-0.340732	0.217617
1.56	-0.539517	0.217236
1.561	-0.44043	0.217617
1.562	-0.226868	0.217236
1.563	-0.0342103	0.217236
1.564	-0.246816	0.217236
1.565	0.550975	0.217236
1.566	1.38808	0.217236
1.567	0.907389	0.217236
1.568	-0.731047	0.217236
1.569	-1.91014	0.217236
1.57	-1.06835	0.217236
1.571	0.535215	0.217236
1.572	0.926241	0.217236
1.573	0.797915	0.217617
1.574	0.399856	0.217236
1.575	-0.0128889	0.217236
1.576	-0.384225	0.217236
1.577	-0.575035	0.217617
1.578	-0.426753	0.217236
1.579	-0.142809	0.217617
1.58	-0.0258727	0.217236
1.581	-0.227766	0.217236
1.582	0.878525	0.217236
1.583	1.46957	0.217236
1.584	0.472604	0.217236
1.585	-1.19107	0.217236
1.586	-2.02454	0.217236
1.587	-0.456612	0.217236
1.588	0.760885	0.217236
1.589	0.990309	0.217236
1.59	0.746076	0.217236
1.591	0.252451	0.217236
1.592	-0.203823	0.217236
1.593	-0.52547	0.217236
1.594	-0.5583	0.217236
1.595	-0.272853	0.217236
1.596	-0.0392102	0.217236
1.597	-0.207166	0.217236
1.598	0.0179904	0.217236
1.599	1.21876	0.217236
1.6	1.3653	0.217236
1.601	-0.0817019	0.217236
1.602	-1.59301	0.217236
1.603	-1.77548	0.217236
1.604	0.114386	0.217236
1.605	0.881574	0.217236
1.606	0.90955	0.217236
1.607	0.586922	0.217236
1.608	0.116151	0.217236
1.609	-0.299993	0.217236
1.61	-0.548707	0.217236
1.611	-0.482171	0.217236
1.612	-0.19502	0.217617
1.613	-0.0034155	0.217236
1.614	-0.374218	0.217236
1.615	0.388322	0.217236
1.616	1.45342	0.217236
1.617	1.1049	0.217236
1.618	-0.629301	0.217236
1.619	-1.90751	0.217236
1.62	-1.2003	0.217617
1.621	0.488411	0.217617
1.622	0.886903	0.217617
1.623	0.789016	0.217617
1.624	0.409127	0.217617
1.625	-0.02057	0.217617
1.626	-0.340899	0.217617
1.627	-0.443867	0.217236
1.628	-0.345501	0.217617
1.629	-0.205964	0.217617
1.63	-0.127041	0.217617
1.631	-0.373952	0.217617
1.632	0.758817	0.217617
1.633	1.53027	0.217617
1.634	0.671993	0.217617
1.635	-0.994717	0.217617
1.636	-1.99742	0.217617
1.637	-0.600042	0.217617
1.638	0.652965	0.217617
1.639	0.907469	0.217617
1.64	0.69105	0.217617
1.641	0.264906	0.217617
1.642	-0.127294	0.217617
1.643	-0.39209	0.217617
1.644	-0.461049	0.217617
1.645	-0.333416	0.217617
1.646	-0.113661	0.217617
1.647	-0.226402	0.217617
1.648	-0.0901497	0.217617
1.649	1.14972	0.217617
1.65	1.40725	0.217617
1.651	0.0933853	0.217617
1.652	-1.46496	0.217617
1.653	-1.81531	0.217617
1.654	-0.00995371	0.217617
1.655	0.8056	0.217617
1.656	0.871025	0.217617
1.657	0.591329	0.217617
1.658	0.161168	0.217617
1.659	-0.272436	0.217617
1.66	-0.472359	0.217617
1.661	-0.418001	0.217617
1.662	-0.219122	0.217617
1.663	-0.0793497	0.217617
1.664	-0.385892	0.217617
1.665	0.324303	0.217617
1.666	1.37025	0.217617
1.667	1.10144	0.217617
1.668	-0.493979	0.217617
1.669	-1.7602	0.217617
1.67	-1.25828	0.217617
1.671	0.449538	0.217617
1.672	0.861279	0.217617
1.673	0.750136	0.217617
1.674	0.39608	0.217617
1.675	-0.00980597	0.217617
1.676	-0.338293	0.217617
1.677	-0.469964	0.217617
1.678	-0.342016	0.217617
1.679	-0.137383	0.217617
1.68	-0.063983	0.217617
1.681	-0.398696	0.217617
1.682	0.682491	0.217617
1.683	1.46147	0.217617
1.684	0.701655	0.217617
1.685	-0.956343	0.217617
1.686	-1.91788	0.217617
1.687	-0.61435	0.217617
1.688	0.63211	0.217617
1.689	0.837585	0.217617
1.69	0.656152	0.217617
1.691	0.294191	0.217617
1.692	-0.092145	0.217617
1.693	-0.321047	0.217617
1.694	-0.445885	0.217617
1.695	-0.373293	0.217617
1.696	-0.174885	0.217617
1.697	-0.229751	0.217617
1.698	-0.132668	0.217617
1.699	1.15363	0.217617
1.7	1.47203	0.217617
1.701	0.170376	0.217617
1.702	-1.41445	0.217617
1.703	-1.90739	0.217617
1.704	-0.126979	0.217617
1.705	0.790843	0.217617
1.706	0.93956	0.217617
1.707	0.639897	0.217617
1.708	0.17286	0.217617
1.709	-0.26491	0.217617
1.71	-0.483033	0.217617
1.711	-0.443191	0.217617
1.712	-0.279739	0.217617
1.713	-0.0557245	0.217617
1.714	-0.294427	0.217617
1.715	0.279527	0.217617
1.716	1.2993	0.217617
1.717	1.13482	0.217617
1.718	-0.411308	0.217617
1.719	-1.7115	0.217617
1.72	-1.36592	0.217617
1.721	0.36137	0.217617
1.722	0.842244	0.217617
1.723	0.801987	0.217617
1.724	0.503162	0.217617
1.725	0.0561477	0.217617
1.726	-0.342498	0.217617
1.727	-0.529331	0.217617
1.728	-0.470551	0.217617
1.729	-0.209118	0.217617
1.73	0.0252764	0.217617
1.731	-0.290994	0.217617
1.732	0.640618	0.217617
1.733	1.4369	0.217617
1.734	0.792918	0.217617
1.735	-0.902279	0.217617
1.736	-1.98198	0.217236
1.737	-0.797437	0.217617
1.738	0.632919	0.217617
1.739	0.912941	0.217617
1.74	0.730466	0.217236
1.741	0.329519	0.217617
1.742	-0.0983423	0.217617
1.743	-0.388487	0.217236
1.744	-0.505045	0.217617
1.745	-0.36874	0.217236
1.746	-0.0765565	0.217236
1.747	-0.117055	0.217617
1.748	-0.217828	0.217617
1.749	0.988795	0.217617
1.75	1.42775	0.217617
1.751	0.262744	0.217617
1.752	-1.32422	0.217617
1.753	-1.88256	0.217617
1.754	-0.127581	0.217617
1.755	0.770783	0.217617
1.756	0.877409	0.217617
1.757	0.644678	0.217617
1.758	0.14981	0.217617
1.759	-0.276046	0.217617
1.76	-0.461281	0.217617
1.761	-0.400034	0.217617
1.762	-0.196038	0.217617
1.763	-0.0490611	0.217617
1.764	-0.383738	0.217617
1.765	0.0854505	0.217617
1.766	1.28047	0.217617
1.767	1.28625	0.217617
1.768	-0.216659	0.217617
1.769	-1.62507	0.217617
1.77	-1.53201	0.217617
1.771	0.235605	0.217617
1.772	0.834643	0.217617
1.773	0.802889	0.217617
1.774	0.458848	0.217617
1.775	0.0673311	0.217617
1.776	-0.255177	0.217617
1.777	-0.449682	0.217617
1.778	-0.416395	0.217617
1.779	-0.171577	0.217617
1.78	-0.0576981	0.217617
1.781	-0.452409	0.217617
1.782	0.542829	0.217617
1.783	1.42778	0.217617
1.784	0.890951	0.217617
1.785	-0.708653	0.217236
1.786	-1.86742	0.217617
1.787	-0.913898	0.217617
1.788	0.542217	0.217617
1.789	0.854001	0.217617
1.79	0.684289	0.217617
1.791	0.312795	0.217236
1.792	-0.0575894	0.217617
1.793	-0.306346	0.217617
1.794	-0.431569	0.217617
1.795	-0.328266	0.217617
1.796	-0.0988184	0.217617
1.797	-0.190002	0.217617
1.798	-0.387535	0.217617
1.799	0.943135	0.217617
1.8	1.5039	0.217617
1.801	0.427595	0.217617
1.802	-1.19669	0.217617
1.803	-1.92429	0.217617
1.804	-0.29287	0.217617
1.805	0.722636	0.217617
1.806	0.897576	0.217617
1.807	0.641121	0.217617
1.808	0.187478	0.217617
1.809	-0.218966	0.217617
1.81	-0.469313	0.217617
1.811	-0.43267	0.217617
1.812	-0.219218	0.217617
1.813	-0.0360427	0.217617
1.814	-0.358868	0.217617
1.815	0.0748598	0.217617
1.816	1.29213	0.217617
1.817	1.30457	0.217617
1.818	-0.219539	0.217617
1.819	-1.65098	0.217617
1.82	-1.62518	0.217617
1.821	0.239212	0.217617
1.822	0.902847	0.217617
1.823	0.86367	0.217617
1.824	0.504682	0.217617
1.825	0.0631942	0.217617
1.826	-0.338059	0.217617
1.827	-0.521205	0.217617
1.828	-0.439606	0.217617
1.829	-0.164824	0.217617
1.83	0.0423123	0.217617
1.831	-0.351669	0.217617
1.832	0.507566	0.217617
1.833	1.36551	0.217617
1.834	0.842775	0.217617
1.835	-0.728746	0.217617
1.836	-1.79817	0.217617
1.837	-0.975822	0.217617
1.838	0.491519	0.217617
1.839	0.885286	0.217617
1.84	0.79189	0.217617
1.841	0.388396	0.217617
1.842	-0.0584379	0.217617
1.843	-0.364591	0.217617
1.844	-0.524743	0.217617
1.845	-0.393746	0.217617
1.846	-0.107912	0.217617
1.847	-0.147194	0.217617
1.848	-0.309481	0.217617
1.849	0.935988	0.217617
1.85	1.47568	0.217617
1.851	0.509718	0.217617
1.852	-1.08782	0.217617
1.853	-1.94485	0.217617
1.854	-0.491697	0.217617
1.855	0.600431	0.217617
1.856	0.899863	0.217617
1.857	0.771333	0.217617
1.858	0.278049	0.217617
1.859	-0.208757	0.217236
1.86	-0.451776	0.217617
1.861	-0.449961	0.217236
1.862	-0.269663	0.217236
1.863	-0.0408202	0.217236
1.864	-0.325193	0.217617
1.865	-0.0493799	0.217617
1.866	1.20644	0.217236
1.867	1.3574	0.217617
1.868	-0.0388112	0.217236
1.869	-1.50449	0.217617
1.87	-1.65891	0.217236
1.871	0.0792682	0.217617
1.872	0.746957	0.217236
1.873	0.829213	0.217617
1.874	0.590567	0.217617
1.875	0.136154	0.217617
1.876	-0.28328	0.217617
1.877	-0.445436	0.217236
1.878	-0.377126	0.217236
1.879	-0.234133	0.217617
1.88	-0.114431	0.217617
1.881	-0.486717	0.217236
1.882	0.44165	0.217617
1.883	1.48937	0.217236
1.884	1.08307	0.217617
1.885	-0.652138	0.217617
1.886	-1.82098	0.217617
1.887	-1.12324	0.217617
1.888	0.436307	0.217617
1.889	0.859316	0.217236
1.89	0.752641	0.217617
1.891	0.367334	0.217236
1.892	0.0201089	0.217236
1.893	-0.301297	0.217236
1.894	-0.462827	0.217617
1.895	-0.405835	0.217236
1.896	-0.145266	0.217236
1.897	-0.0816499	0.217236
1.898	-0.444421	0.217236
1.899	0.770651	0.217236
1.9	1.55379	0.217236
1.901	0.679502	0.217236
1.902	-1.03036	0.217617
1.903	-1.97148	0.217236
1.904	-0.555595	0.217236
1.905	0.624105	0.217236
1.906	0.858206	0.217236
1.907	0.628561	0.217236
1.908	0.269741	0.217236
1.909	-0.0930638	0.217236
1.91	-0.320968	0.217617
1.911	-0.379453	0.217236
1.912	-0.298887	0.217617
1.913	-0.167405	0.217236
1.914	-0.349212	0.217617
1.915	-0.175665	0.217236
1.916	1.13274	0.217617
1.917	1.48981	0.217617
1.918	0.163478	0.217617
1.919	-1.42091	0.217617
1.92	-1.75975	0.217617
1.921	-0.0237304	0.217617
1.922	0.70986	0.217617
1.923	0.828542	0.217617
1.924	0.535514	0.217617
1.925	0.0995655	0.217617
1.926	-0.129284	0.217617
1.927	-0.330489	0.217617
1.928	-0.437014	0.217617
1.929	-0.29239	0.217617
1.93	-0.0996155	0.217617
1.931	-0.507644	0.217617
1.932	0.325707	0.217617
1.933	1.4317	0.217617
1.934	1.17792	0.217617
1.935	-0.437547	0.217617
1.936	-1.76162	0.217617
1.937	-1.29741	0.217617
1.938	0.343917	0.217617
1.939	0.813403	0.217617
1.94	0.791926	0.217617
1.941	0.457829	0.217617
1.942	0.0311421	0.217617
1.943	-0.307745	0.217617
1.944	-0.493127	0.217617
1.945	-0.403261	0.217617
1.946	-0.160689	0.217617
1.947	-0.0692348	0.217617
1.948	-0.393124	0.217617
1.949	0.767619	0.217617
1.95	1.46319	0.217617
1.951	0.642624	0.217617
1.952	-0.978459	0.217617
1.953	-1.92246	0.217617
1.954	-0.586234	0.217617
1.955	0.632491	0.217617
1.956	0.883094	0.217617
1.957	0.667963	0.217617
1.958	0.235087	0.217617
1.959	-0.111882	0.217617
1.96	-0.362698	0.217617
1.961	-0.438664	0.217617
1.962	-0.309204	0.217617
1.963	-0.0897507	0.217617
1.964	-0.226397	0.217617
1.965	-0.159183	0.217617
1.966	1.05275	0.217617
1.967	1.36013	0.217617
1.968	0.154661	0.217617
1.969	-1.29777	0.217617
1.97	-1.74317	0.217617
1.971	-0.0786961	0.217617
1.972	0.727132	0.217617
1.973	0.82768	0.217617
1.974	0.563082	0.217617
1.975	0.126867	0.217617
1.976	-0.219746	0.217617
1.977	-0.374864	0.217617
1.978	-0.366612	0.217617
1.979	-0.249043	0.217617
1.98	-0.121085	0.217617
1.981	-0.474578	0.217617
1.982	0.220827	0.217617
1.983	1.3969	0.217617
1.984	1.2897	0.217617
1.985	-0.346064	0.217617
1.986	-1.74916	0.217617
1.987	-1.41424	0.217617
1.988	0.298541	0.217617
1.989	0.786209	0.217617
1.99	0.783157	0.217617
1.991	0.44566	0.217617
1.992	0.0637346	0.217617
1.993	-0.198118	0.217617
1.994	-0.396812	0.217617
1.995	-0.384381	0.217617
1.996	-0.261178	0.217617
1.997	-0.201881	0.217617
1.998	-0.443327	0.217617
1.999	0.716536	0.217617
2	1.53929	0.217617
2.001	0.823492	0.217617
2.002	-0.88638	0.217617
2.003	-1.97923	0.217617
2.004	-0.773771	0.217617
2.005	0.596383	0.217617
2.006	0.911036	0.217617
2.007	0.734184	0.217617
2.008	0.306849	0.217617
2.009	-0.12371	0.217617
2.01	-0.404591	0.217617
2.011	-0.453907	0.217617
2.012	-0.304627	0.217617
2.013	-0.118923	0.217617
2.014	-0.203326	0.217236
2.015	-0.223516	0.217617
2.016	1.0248	0.217236
2.017	1.45623	0.217236
2.018	0.325671	0.217617
2.019	-1.27335	0.217236
2.02	-1.93499	0.217617
2.021	-0.202549	0.217617
2.022	0.724704	0.217236
2.023	0.863925	0.217236
2.024	0.616365	0.217617
2.025	0.178067	0.217617
2.026	-0.131447	0.217617
2.027	-0.342708	0.217617
2.028	-0.462301	0.217236
2.029	-0.363968	0.217617
2.03	-0.158205	0.217617
2.031	-0.377975	0.217617
2.032	0.233885	0.217617
2.033	1.41147	0.217617
2.034	1.30692	0.217617
2.035	-0.339458	0.217617
2.036	-1.78628	0.217617
2.037	-1.52211	0.217617
2.038	0.293638	0.217617
2.039	0.886374	0.217617
2.04	0.878222	0.217617
2.041	0.514005	0.217617
2.042	0.0433811	0.217617
2.043	-0.329307	0.217617
2.044	-0.502749	0.217617
2.045	-0.438644	0.217617
2.046	-0.248441	0.217617
2.047	-0.0663627	0.217617
2.048	-0.353829	0.217617
2.049	0.644515	0.217617
2.05	1.53296	0.217617
2.051	0.923794	0.217617
2.052	-0.813657	0.217617
2.053	-2.04508	0.217617
2.054	-0.997648	0.217617
2.055	0.541644	0.217617
2.056	0.942088	0.217617
2.057	0.81528	0.217617
2.058	0.377163	0.217617
2.059	-0.0798607	0.217617
2.06	-0.365593	0.217617
2.061	-0.424183	0.217617
2.062	-0.330048	0.217617
2.063	-0.224097	0.217617
2.064	-0.270364	0.217617
2.065	-0.242094	0.217617
2.066	1.04052	0.217617
2.067	1.51317	0.217617
2.068	0.350386	0.217617
2.069	-1.25269	0.217617
2.07	-1.91446	0.217617
2.071	-0.208253	0.217617
2.072	0.741563	0.217617
2.073	0.837106	0.217617
2.074	0.574417	0.217617
2.075	0.173395	0.217617
2.076	-0.184927	0.217617
2.077	-0.37776	0.217617
2.078	-0.394967	0.217617
2.079	-0.286187	0.217617
2.08	-0.0929245	0.217617
2.081	-0.31038	0.217617
2.082	0.0753241	0.217617
2.083	1.22158	0.217617
2.084	1.28803	0.217617
2.085	-0.174722	0.217617
2.086	-1.58305	0.217617
2.087	-1.56164	0.217617
2.088	0.195756	0.217617
2.089	0.817029	0.217617
2.09	0.842848	0.217617
2.091	0.503067	0.217617
2.092	0.0591701	0.217617
2.093	-0.309199	0.217617
2.094	-0.454222	0.217617
2.095	-0.37656	0.217617
2.096	-0.223223	0.217617
2.097	-0.0754699	0.217617
2.098	-0.349762	0.217617
2.099	0.525468	0.217617
2.1	1.4151	0.217617
2.101	0.911351	0.217617
2.102	-0.740542	0.217617
2.103	-1.88711	0.217617
2.104	-0.996747	0.217617
2.105	0.545327	0.217617
2.106	0.933791	0.217617
2.107	0.763553	0.217617
2.108	0.338297	0.217617
2.109	-0.0733766	0.217617
2.11	-0.353639	0.217617
2.111	-0.469051	0.217617
2.112	-0.37305	0.217617
2.113	-0.190763	0.217617
2.114	-0.164805	0.217617
2.115	-0.246684	0.217617
2.116	1.00288	0.217617
2.117	1.51481	0.217617
2.118	0.414225	0.217617
2.119	-1.21348	0.217617
2.12	-1.9856	0.217617
2.121	-0.417001	0.217617
2.122	0.737395	0.217617
2.123	0.936203	0.217617
2.124	0.699117	0.217617
2.125	0.263189	0.217617
2.126	-0.197722	0.217617
2.127	-0.471952	0.217617
2.128	-0.473523	0.217617
2.129	-0.273339	0.217617
2.13	-0.100572	0.217617
2.131	-0.318918	0.217617
2.132	0.0303489	0.217617
2.133	1.27482	0.217617
2.134	1.40911	0.217617
2.135	-0.0877536	0.217617
2.136	-1.61033	0.217617
2.137	-1.71602	0.217617
2.138	0.0982953	0.217617
2.139	0.809875	0.217617
2.14	0.844516	0.217617
2.141	0.574612	0.217617
2.142	0.17744	0.217617
2.143	-0.214144	0.217617
2.144	-0.475716	0.217617
2.145	-0.475911	0.217617
2.146	-0.296581	0.217617
2.147	-0.123432	0.217617
2.148	-0.396994	0.217617
2.149	0.500374	0.217617
2.15	1.51292	0.217617
2.151	1.05731	0.217617
2.152	-0.645614	0.217617
2.153	-1.90827	0.217617
2.154	-1.14427	0.217617
2.155	0.473859	0.217617
2.156	0.863917	0.217617
2.157	0.764002	0.217617
2.158	0.418004	0.217617
2.159	-0.0188599	0.217617
2.16	-0.34742	0.217998
2.161	-0.449626	0.217998
2.162	-0.316721	0.217617
2.163	-0.145944	0.217617
2.164	-0.139806	0.217617
2.165	-0.403415	0.217617
2.166	0.759607	0.217617
2.167	1.453	0.217617
2.168	0.596157	0.217617
2.169	-1.03462	0.217617
2.17	-1.9103	0.217617
2.171	-0.400813	0.217617
2.172	0.760988	0.217617
2.173	0.93789	0.217617
2.174	0.632026	0.217617
2.175	0.0791592	0.217617
2.176	-0.359024	0.217617
2.177	-0.558025	0.217617
2.178	-0.499357	0.217617
2.179	-0.150591	0.217617
2.18	0.257892	0.217617
2.181	-0.287554	0.217617
2.182	1.00296	0.217617
2.183	1.27286	0.217617
2.184	0.00562863	0.217617
2.185	-1.42724	0.217617
2.186	-1.6646	0.217617
2.187	0.0949147	0.217617
2.188	0.824535	0.217617
2.189	0.842479	0.217617
2.19	0.56013	0.217617
2.191	0.113129	0.217617
2.192	-0.284238	0.217617
2.193	-0.478257	0.217617
2.194	-0.4132	0.217617
2.195	-0.246451	0.217617
2.196	-0.0818497	0.217617
2.197	-0.367713	0.217617
2.198	0.388994	0.217617
2.199	1.39054	0.217617
2.2	1.09003	0.217617
2.201	-0.540382	0.217617
2.202	-1.8131	0.217617
2.203	-1.1849	0.217617
2.204	0.449466	0.217617
2.205	0.832435	0.217617
2.206	0.735108	0.217617
2.207	0.401524	0.217617
2.208	-0.0287819	0.217617
2.209	-0.302456	0.217617
2.21	-0.396869	0.217617
2.211	-0.348809	0.217617
2.212	-0.196638	0.217617
2.213	-0.140566	0.217617
2.214	-0.385063	0.217617
2.215	0.784197	0.217617
2.216	1.50766	0.217617
2.217	0.660471	0.217617
2.218	-0.996084	0.217617
2.219	-1.98843	0.217617
2.22	-0.640162	0.217617
2.221	0.634933	0.217617
2.222	0.932548	0.217617
2.223	0.712409	0.217617
2.224	0.325447	0.217617
2.225	-0.0616215	0.217617
2.226	-0.434555	0.217617
2.227	-0.550965	0.217617
2.228	-0.356484	0.217617
2.229	-0.116363	0.217617
2.23	-0.233133	0.217617
2.231	-0.0903263	0.217617
2.232	1.18557	0.217617
2.233	1.45043	0.217617
2.234	0.0952249	0.217617
2.235	-1.46211	0.217617
2.236	-1.82002	0.217617
2.237	-0.0359121	0.217617
2.238	0.781693	0.217998
2.239	0.898295	0.217617
2.24	0.576159	0.217617
2.241	0.128311	0.217617
2.242	-0.248734	0.217998
2.243	-0.470487	0.217998
2.244	-0.405504	0.217617
2.245	-0.198306	0.217998
2.246	-0.0648223	0.217998
2.247	-0.416281	0.217998
2.248	0.263261	0.217998
2.249	1.39888	0.217617
2.25	1.17661	0.217998
2.251	-0.444087	0.217617
2.252	-1.79857	0.217998
2.253	-1.36354	0.217998
2.254	0.377059	0.217998
2.255	0.885255	0.217998
2.256	0.84915	0.217617
2.257	0.474501	0.217998
2.258	-0.0177356	0.217617
2.259	-0.381286	0.217617
2.26	-0.502545	0.217617
2.261	-0.381446	0.217617
2.262	-0.133682	0.217998
2.263	-0.0352258	0.217998
2.264	-0.384815	0.217617
2.265	0.696412	0.217617
2.266	1.45246	0.217617
2.267	0.689993	0.217998
2.268	-0.941833	0.217617
2.269	-1.90363	0.217617
2.27	-0.656234	0.217617
2.271	0.613424	0.217617
2.272	0.839056	0.217617
2.273	0.667432	0.217617
2.274	0.327685	0.217617
2.275	-0.0481731	0.217617
2.276	-0.362939	0.217617
2.277	-0.490838	0.217617
2.278	-0.336984	0.217617
2.279	-0.129534	0.217998
2.28	-0.2445	0.217617
2.281	-0.211451	0.217617
2.282	1.1146	0.217617
2.283	1.48095	0.217998
2.284	0.200071	0.217617
2.285	-1.33731	0.217617
2.286	-1.83897	0.217617
2.287	-0.118881	0.217617
2.288	0.727745	0.217617
2.289	0.831134	0.217998
2.29	0.597964	0.217617
2.291	0.180464	0.217617
2.292	-0.201919	0.217617
2.293	-0.394543	0.217617
2.294	-0.408629	0.217617
2.295	-0.261655	0.217998
2.296	-0.136383	0.217998
2.297	-0.420941	0.217617
2.298	0.219803	0.217617
2.299	1.36768	0.217617
2.3	1.25517	0.217617
2.301	-0.290936	0.217617
2.302	-1.7041	0.217617
2.303	-1.48865	0.217617
2.304	0.258681	0.217998
2.305	0.815569	0.217617
2.306	0.832572	0.217998
2.307	0.500178	0.217617
2.308	0.0684784	0.217617
2.309	-0.273384	0.217617
2.31	-0.449056	0.217998
2.311	-0.412296	0.217617
2.312	-0.273111	0.217617
2.313	-0.118103	0.217617
2.314	-0.376495	0.217617
2.315	0.698487	0.217617
2.316	1.51766	0.217617
2.317	0.810468	0.217617
2.318	-0.892404	0.217617
2.319	-1.97364	0.217617
2.32	-0.840187	0.217617
2.321	0.594955	0.217617
2.322	0.948893	0.217617
2.323	0.787063	0.217617
2.324	0.312641	0.217617
2.325	-0.138852	0.217617
2.326	-0.420128	0.217617
2.327	-0.490067	0.217617
2.328	-0.291457	0.217617
2.329	-0.0950739	0.217617
2.33	-0.210969	0.217617
2.331	-0.253232	0.217617
2.332	1.04861	0.217617
2.333	1.49562	0.217617
2.334	0.309064	0.217617
2.335	-1.27935	0.217617
2.336	-1.97285	0.217617
2.337	-0.255615	0.217617
2.338	0.789798	0.217617
2.339	0.966587	0.217617
2.34	0.624972	0.217617
2.341	0.124719	0.217617
2.342	-0.231319	0.217617
2.343	-0.447004	0.217617
2.344	-0.412512	0.217617
2.345	-0.217281	0.217617
2.346	-0.0471425	0.217617
2.347	-0.362183	0.217617
2.348	0.0799968	0.217617
2.349	1.31291	0.217617
2.35	1.2835	0.217617
2.351	-0.283168	0.217617
2.352	-1.68138	0.217617
2.353	-1.51375	0.217617
2.354	0.296369	0.217617
2.355	0.862406	0.217617
2.356	0.818932	0.217617
2.357	0.475888	0.217617
2.358	0.0472667	0.217617
2.359	-0.304992	0.217617
2.36	-0.469467	0.217617
2.361	-0.387651	0.217617
2.362	-0.178471	0.217617
2.363	-0.086376	0.217617
2.364	-0.464815	0.217617
2.365	0.575465	0.217617
2.366	1.50813	0.217617
2.367	0.937043	0.217617
2.368	-0.766754	0.217617
2.369	-1.94271	0.217617
2.37	-0.945032	0.217617
2.371	0.519613	0.217617
2.372	0.871626	0.217617
2.373	0.756863	0.217617
2.374	0.38015	0.217617
2.375	-0.0503397	0.217617
2.376	-0.358585	0.217617
2.377	-0.485056	0.217617
2.378	-0.339363	0.217617
2.379	-0.135695	0.217617
2.38	-0.178815	0.217617
2.381	-0.322892	0.217617
2.382	0.967777	0.217617
2.383	1.51673	0.217617
2.384	0.413037	0.217617
2.385	-1.21085	0.217617
2.386	-1.94641	0.217617
2.387	-0.322354	0.217617
2.388	0.734539	0.217617
2.389	0.921535	0.217617
2.39	0.630459	0.217617
2.391	0.155044	0.217617
2.392	-0.214532	0.217617
2.393	-0.401659	0.217617
2.394	-0.391469	0.217617
2.395	-0.24124	0.217617
2.396	-0.0849076	0.217617
2.397	-0.330882	0.217617
2.398	0.023427	0.217617
2.399	1.21091	0.217617
2.4	1.29392	0.217617
2.401	-0.140279	0.217617
2.402	-1.53444	0.217617
2.403	-1.56472	0.217617
2.404	0.19113	0.217617
2.405	0.78078	0.217617
2.406	0.826254	0.217617
2.407	0.51345	0.217617
2.408	0.0420044	0.217617
2.409	-0.281991	0.217617
2.41	-0.437785	0.217617
2.411	-0.403512	0.217617
2.412	-0.173859	0.217617
2.413	-0.034098	0.217617
2.414	-0.444162	0.217617
2.415	0.43682	0.217617
2.416	1.42523	0.217617
2.417	0.999678	0.217617
2.418	-0.647199	0.217617
2.419	-1.86878	0.217617
2.42	-1.04579	0.217617
2.421	0.502196	0.217617
2.422	0.841026	0.217617
2.423	0.725617	0.217617
2.424	0.422606	0.217617
2.425	-0.00434049	0.217617
2.426	-0.371152	0.217617
2.427	-0.472967	0.217617
2.428	-0.376673	0.217617
2.429	-0.150717	0.217617
2.43	-0.102159	0.217617
2.431	-0.319424	0.217617
2.432	0.849523	0.217617
2.433	1.45946	0.217617
2.434	0.51911	0.217617
2.435	-1.11008	0.217617
2.436	-1.95238	0.217617
2.437	-0.4139	0.217617
2.438	0.74316	0.217617
2.439	0.89492	0.217617
2.44	0.599867	0.217617
2.441	0.208897	0.217617
2.442	-0.137252	0.217617
2.443	-0.391315	0.217617
2.444	-0.485188	0.217617
2.445	-0.31466	0.217617
2.446	-0.065573	0.217617
2.447	-0.241496	0.217617
2.448	-0.000770209	0.217617
2.449	1.18503	0.217617
2.45	1.33149	0.217617
2.451	-0.0428597	0.217617
2.452	-1.51096	0.217617
2.453	-1.6974	0.217617
2.454	0.0814276	0.217617
2.455	0.782048	0.217617
2.456	0.844719	0.217617
2.457	0.558202	0.217617
2.458	0.138143	0.217617
2.459	-0.232293	0.217617
2.46	-0.447208	0.217617
2.461	-0.42259	0.217617
2.462	-0.239512	0.217617
2.463	-0.0927592	0.217617
2.464	-0.439434	0.217617
2.465	0.352532	0.217617
2.466	1.42913	0.217617
2.467	1.15392	0.217617
2.468	-0.523422	0.217617
2.469	-1.84283	0.217617
2.47	-1.21632	0.217617
2.471	0.413184	0.217617
2.472	0.850863	0.217617
2.473	0.775667	0.217617
2.474	0.423664	0.217617
2.475	0.00968075	0.217617
2.476	-0.340506	0.217617
2.477	-0.469051	0.217617
2.478	-0.347082	0.217617
2.479	-0.197574	0.217617
2.48	-0.132327	0.217617
2.481	-0.358471	0.217617
2.482	0.822299	0.217617
2.483	1.5333	0.217617
2.484	0.624294	0.217617
2.485	-1.07952	0.217617
2.486	-2.00978	0.217617
2.487	-0.551106	0.217617
2.488	0.694387	0.217617
2.489	0.929492	0.217617
2.49	0.706256	0.217617
2.491	0.243683	0.217617
2.492	-0.155161	0.217617
2.493	-0.424622	0.217617
2.494	-0.473566	0.217617
2.495	-0.28012	0.217617
2.496	-0.0951916	0.217617
2.497	-0.250767	0.217617
2.498	-0.0628606	0.217617
2.499	1.14244	0.217617
2.5	1.35746	0.217617
2.501	0.0525542	0.217617
2.502	-1.44088	0.217617
2.503	-1.75199	0.217617
2.504	0.0478261	0.217617
2.505	0.782155	0.217617
2.506	0.833772	0.217617
2.507	0.5555	0.217617
2.508	0.121109	0.217617
2.509	-0.262612	0.217617
2.51	-0.444924	0.217617
2.511	-0.394939	0.217617
2.512	-0.19472	0.217617
2.513	-0.0471074	0.217617
2.514	-0.42046	0.217617
2.515	0.294068	0.217617
2.516	1.36692	0.217617
2.517	1.11792	0.217617
2.518	-0.521792	0.217617
2.519	-1.78275	0.217617
2.52	-1.22117	0.217617
2.521	0.435074	0.217617
2.522	0.891165	0.217617
2.523	0.797539	0.217617
2.524	0.36123	0.217617
2.525	-0.048324	0.217617
2.526	-0.307884	0.217617
2.527	-0.427353	0.217617
2.528	-0.399345	0.217617
2.529	-0.2117	0.217617
2.53	-0.0818074	0.217617
2.531	-0.332144	0.217617
2.532	0.787372	0.217617
2.533	1.51858	0.217617
2.534	0.645322	0.217617
2.535	-1.07413	0.217617
2.536	-1.98861	0.217617
2.537	-0.595879	0.217617
2.538	0.708364	0.217617
2.539	0.942158	0.217617
2.54	0.686654	0.217617
2.541	0.208821	0.217617
2.542	-0.185692	0.217617
2.543	-0.376594	0.217617
2.544	-0.395451	0.217617
2.545	-0.299456	0.217617
2.546	-0.0994906	0.217617
2.547	-0.187787	0.217617
2.548	-0.155481	0.217617
2.549	0.998179	0.217617
2.55	1.3962	0.217617
2.551	0.184578	0.217617
2.552	-1.37785	0.217617
2.553	-1.8055	0.217617
2.554	-0.0272894	0.217617
2.555	0.787603	0.217617
2.556	0.852998	0.217617
2.557	0.551143	0.217617
2.558	0.156872	0.217617
2.559	-0.210269	0.217617
2.56	-0.461888	0.217617
2.561	-0.473009	0.217236
2.562	-0.270912	0.217617
2.563	-0.0181172	0.217617
2.564	-0.331822	0.217617
2.565	0.28414	0.217617
2.566	1.3302	0.217617
2.567	1.16142	0.217617
2.568	-0.40539	0.217617
2.569	-1.81767	0.217617
2.57	-1.37991	0.217617
2.571	0.417185	0.217617
2.572	0.915565	0.217617
2.573	0.808179	0.217617
2.574	0.408751	0.217617
2.575	-0.00487335	0.217617
2.576	-0.325488	0.217617
2.577	-0.46925	0.217617
2.578	-0.394998	0.217617
2.579	-0.181922	0.217617
2.58	-0.0456658	0.217617
2.581	-0.355116	0.217617
2.582	0.677921	0.217617
2.583	1.47552	0.217617
2.584	0.754861	0.217617
2.585	-0.958683	0.217617
2.586	-2.01878	0.217617
2.587	-0.726387	0.217617
2.588	0.693345	0.217617
2.589	0.97337	0.217617
2.59	0.703725	0.217617
2.591	0.26299	0.217617
2.592	-0.110062	0.217617
2.593	-0.418418	0.217617
2.594	-0.504673	0.217617
2.595	-0.300724	0.217617
2.596	-0.0860631	0.217617
2.597	-0.215033	0.217617
2.598	-0.189529	0.217617
2.599	1.0769	0.217617
2.6	1.4654	0.217617
2.601	0.213444	0.217617
2.602	-1.3532	0.217617
2.603	-1.87935	0.217617
2.604	-0.134009	0.217617
2.605	0.764986	0.217617
2.606	0.894536	0.217617
2.607	0.611634	0.217617
2.608	0.146796	0.217617
2.609	-0.23004	0.217617
2.61	-0.426002	0.217617
2.611	-0.442883	0.217617
2.612	-0.249069	0.217617
2.613	-0.0604192	0.217617
2.614	-0.357932	0.217617
2.615	0.211393	0.217617
2.616	1.34092	0.217617
2.617	1.21202	0.217617
2.618	-0.357894	0.217236
2.619	-1.72978	0.217617
2.62	-1.49657	0.217617
2.621	0.29612	0.217617
2.622	0.930381	0.217236
2.623	0.911757	0.217617
2.624	0.500506	0.217617
2.625	-0.0165052	0.217617
2.626	-0.381548	0.217617
2.627	-0.532589	0.217617
2.628	-0.401432	0.217617
2.629	-0.161621	0.217617
2.63	-0.0107705	0.217617
2.631	-0.359126	0.217236
2.632	0.630954	0.217236
2.633	1.45241	0.217236
2.634	0.776681	0.217236
2.635	-0.866343	0.217617
2.636	-1.92741	0.217236
2.637	-0.797502	0.217236
2.638	0.603581	0.217617
2.639	0.862092	0.217617
2.64	0.711296	0.217236
2.641	0.356801	0.217236
2.642	-0.0430339	0.217236
2.643	-0.380265	0.217617
2.644	-0.496333	0.217617
2.645	-0.358679	0.217236
2.646	-0.170701	0.217617
2.647	-0.19104	0.217617
2.648	-0.198777	0.217617
2.649	1.05383	0.217236
2.65	1.50799	0.217617
2.651	0.307275	0.217617
2.652	-1.32274	0.217617
2.653	-1.95675	0.217617
2.654	-0.221669	0.217617
2.655	0.814075	0.217617
2.656	0.917097	0.217236
2.657	0.570252	0.217617
2.658	0.138435	0.217236
2.659	-0.215828	0.217617
2.66	-0.398241	0.217617
2.661	-0.387418	0.217236
2.662	-0.229333	0.217236
2.663	-0.0883678	0.217236
2.664	-0.391104	0.217617
2.665	0.119316	0.217236
2.666	1.2744	0.217617
2.667	1.24248	0.217617
2.668	-0.209788	0.217236
2.669	-1.59922	0.217236
2.67	-1.55112	0.217236
2.671	0.227604	0.217236
2.672	0.829015	0.217236
2.673	0.845164	0.217236
2.674	0.517863	0.217236
2.675	0.076768	0.217236
2.676	-0.321496	0.217236
2.677	-0.477562	0.217236
2.678	-0.42071	0.217236
2.679	-0.231303	0.217236
2.68	-0.0711738	0.217236
2.681	-0.383407	0.217236
2.682	0.592597	0.217236
2.683	1.49317	0.217236
2.684	0.923848	0.217236
2.685	-0.800508	0.217236
2.686	-1.95196	0.217236
2.687	-0.961196	0.217236
2.688	0.545785	0.217236
2.689	0.917758	0.217236
2.69	0.7705	0.217236
2.691	0.356497	0.217236
2.692	-0.0883943	0.217236
2.693	-0.395533	0.217236
2.694	-0.43345	0.217236
2.695	-0.28653	0.217236
2.696	-0.176791	0.217236
2.697	-0.230614	0.217236
2.698	-0.289346	0.217236
2.699	1.00635	0.217236
2.7	1.50817	0.217236
2.701	0.400616	0.217236
2.702	-1.21187	0.217236
2.703	-1.95029	0.217236
2.704	-0.323051	0.217236
2.705	0.720062	0.217236
2.706	0.890999	0.217236
2.707	0.646364	0.217236
2.708	0.21526	0.217236
2.709	-0.180668	0.217236
2.71	-0.419073	0.217236
2.711	-0.446804	0.217236
2.712	-0.283032	0.217236
2.713	-0.0687322	0.217236
2.714	-0.312511	0.217236
2.715	-0.00151036	0.217236
2.716	1.23787	0.217236
2.717	1.38087	0.217236
2.718	-0.0959425	0.217236
2.719	-1.60344	0.217236
2.72	-1.66671	0.217236
2.721	0.13193	0.217236
2.722	0.835597	0.217236
2.723	0.878628	0.217236
2.724	0.520127	0.217236
2.725	0.0575169	0.217236
2.726	-0.279246	0.217236
2.727	-0.405904	0.217236
2.728	-0.380717	0.217236
2.729	-0.240336	0.217236
2.73	-0.118415	0.217236
2.731	-0.465637	0.217236
2.732	0.491851	0.217236
2.733	1.48689	0.217236
2.734	1.04153	0.217236
2.735	-0.680986	0.217236
2.736	-1.89256	0.217236
2.737	-1.07656	0.217236
2.738	0.49706	0.217236
2.739	0.914142	0.217236
2.74	0.733876	0.217236
2.741	0.327276	0.217236
2.742	-0.062663	0.217236
2.743	-0.303856	0.217236
2.744	-0.38501	0.217236
2.745	-0.340963	0.217236
2.746	-0.212436	0.217236
2.747	-0.166831	0.217236
2.748	-0.338819	0.217236
2.749	0.883174	0.217236
2.75	1.51762	0.217236
2.751	0.522108	0.217236
2.752	-1.13557	0.217236
2.753	-1.97185	0.217236
2.754	-0.455564	0.217236
2.755	0.716851	0.217236
2.756	0.98277	0.217236
2.757	0.701104	0.217236
2.758	0.154103	0.217236
2.759	-0.250558	0.217236
2.76	-0.423293	0.217236
2.761	-0.419274	0.217236
2.762	-0.253825	0.217236
2.763	-0.0488991	0.217236
2.764	-0.2701	0.217236
2.765	-0.0549051	0.217236
2.766	1.18626	0.217236
2.767	1.35553	0.217236
2.768	-0.0493558	0.217236
2.769	-1.52968	0.217236
2.77	-1.69489	0.217236
2.771	0.123932	0.217236
2.772	0.80712	0.217236
2.773	0.837994	0.217236
2.774	0.564215	0.217236
2.775	0.10201	0.217236
2.776	-0.292714	0.217236
2.777	-0.453811	0.217236
2.778	-0.399485	0.217236
2.779	-0.206563	0.217236
2.78	-0.0383327	0.217236
2.781	-0.453846	0.217236
2.782	0.346293	0.217236
2.783	1.40367	0.217236
2.784	1.12331	0.217236
2.785	-0.510928	0.217236
2.786	-1.82537	0.217236
2.787	-1.19941	0.217236
2.788	0.399115	0.217236
2.789	0.816871	0.217236
2.79	0.786744	0.217236
2.791	0.431118	0.217236
2.792	0.0180517	0.217236
2.793	-0.321467	0.217236
2.794	-0.470473	0.217236
2.795	-0.372994	0.217236
2.796	-0.173542	0.217236
2.797	-0.133247	0.217236
2.798	-0.368599	0.217236
2.799	0.809593	0.217617
2.8	1.50636	0.217236
2.801	0.59977	0.217236
2.802	-1.04697	0.217236
2.803	-1.92771	0.217236
2.804	-0.53063	0.217236
2.805	0.673261	0.217236
2.806	0.895721	0.217236
2.807	0.6441	0.217236
2.808	0.190346	0.217236
2.809	-0.173168	0.217236
2.81	-0.347299	0.217236
2.811	-0.358635	0.217236
2.812	-0.242274	0.217236
2.813	-0.0882592	0.217236
2.814	-0.310346	0.217236
2.815	-0.215565	0.217236
2.816	1.05828	0.217236
2.817	1.45782	0.217236
2.818	0.115578	0.217236
2.819	-1.37224	0.217236
2.82	-1.70202	0.217236
2.821	-0.0107046	0.217236
2.822	0.734047	0.217236
2.823	0.798686	0.217236
2.824	0.535026	0.217236
2.825	0.149849	0.217236
2.826	-0.2018	0.217236
2.827	-0.448357	0.217236
2.828	-0.413327	0.217236
2.829	-0.215874	0.217236
2.83	-0.0714853	0.217617
2.831	-0.439767	0.217236
2.832	0.315646	0.217236
2.833	1.438	0.217617
2.834	1.12709	0.217236
2.835	-0.535179	0.217236
2.836	-1.78612	0.217617
2.837	-1.24199	0.217236
2.838	0.385732	0.217617
2.839	0.837465	0.217236
2.84	0.809878	0.217617
2.841	0.440885	0.217617
2.842	0.00617403	0.217236
2.843	-0.320735	0.217617
2.844	-0.448774	0.217617
2.845	-0.376696	0.217236
2.846	-0.22312	0.217236
2.847	-0.138099	0.217617
2.848	-0.375603	0.217617
2.849	0.763844	0.217236
2.85	1.5272	0.217617
2.851	0.736363	0.217617
2.852	-0.973919	0.217236
2.853	-1.99412	0.217236
2.854	-0.676522	0.217236
2.855	0.638675	0.217236
2.856	0.918048	0.217236
2.857	0.696193	0.217236
2.858	0.26379	0.217236
2.859	-0.141939	0.217236
2.86	-0.388967	0.217236
2.861	-0.428035	0.217236
2.862	-0.28736	0.217617
2.863	-0.111748	0.217236
2.864	-0.228426	0.217236
2.865	-0.146439	0.217236
2.866	1.09125	0.217236
2.867	1.4079	0.217236
2.868	0.134865	0.217236
2.869	-1.40175	0.217236
2.87	-1.84599	0.217617
2.871	-0.0394567	0.217236
2.872	0.821499	0.217236
2.873	0.880407	0.217236
2.874	0.609189	0.217236
2.875	0.15827	0.217617
2.876	-0.289439	0.217617
2.877	-0.492774	0.217617
2.878	-0.438117	0.217236
2.879	-0.211078	0.217617
2.88	-0.0191239	0.217617
2.881	-0.371931	0.217617
2.882	0.238086	0.217617
2.883	1.33462	0.217617
2.884	1.17228	0.217617
2.885	-0.402418	0.217617
2.886	-1.74966	0.217617
2.887	-1.37105	0.217617
2.888	0.382446	0.217617
2.889	0.897602	0.217236
2.89	0.80991	0.217617
2.891	0.392666	0.217236
2.892	-0.0419551	0.217617
2.893	-0.328684	0.217617
2.894	-0.424505	0.217617
2.895	-0.330229	0.217617
2.896	-0.155739	0.217617
2.897	-0.0977421	0.217617
2.898	-0.425003	0.217236
2.899	0.649313	0.217617
2.9	1.4959	0.217617
2.901	0.777803	0.217617
2.902	-0.91256	0.217617
2.903	-1.94748	0.217236
2.904	-0.73094	0.217236
2.905	0.621069	0.217236
2.906	0.871011	0.217236
2.907	0.694106	0.217236
2.908	0.317902	0.217236
2.909	-0.0853904	0.217236
2.91	-0.366386	0.217236
2.911	-0.433885	0.217236
2.912	-0.323441	0.217236
2.913	-0.179665	0.217236
2.914	-0.253606	0.217236
2.915	-0.199755	0.217236
2.916	1.08647	0.217236
2.917	1.49124	0.217236
2.918	0.244301	0.217236
2.919	-1.32129	0.217236
2.92	-1.85442	0.217236
2.921	-0.14743	0.217236
2.922	0.731563	0.217236
2.923	0.8262	0.217236
2.924	0.567318	0.217236
2.925	0.185686	0.217236
2.926	-0.148023	0.217236
2.927	-0.390915	0.217236
2.928	-0.44959	0.217236
2.929	-0.278017	0.217236
2.93	-0.0865747	0.217236
2.931	-0.37721	0.217236
2.932	0.167855	0.217236
2.933	1.33551	0.217236
2.934	1.25345	0.217236
2.935	-0.312447	0.217236
2.936	-1.68253	0.217236
2.937	-1.48955	0.217236
2.938	0.292661	0.217236
2.939	0.873463	0.217236
2.94	0.814868	0.217236
2.941	0.473066	0.217236
2.942	0.0379643	0.217236
2.943	-0.323416	0.217236
2.944	-0.466987	0.217236
2.945	-0.401369	0.217236
2.946	-0.175131	0.217617
2.947	-0.0490765	0.217236
2.948	-0.404677	0.217236
2.949	0.616232	0.217236
2.95	1.45623	0.217236
2.951	0.828987	0.217236
2.952	-0.83528	0.217617
2.953	-1.95311	0.217617
2.954	-0.853645	0.217617
2.955	0.604652	0.217236
2.956	0.928594	0.217236
2.957	0.753467	0.217617
2.958	0.352911	0.217236
2.959	-0.100274	0.217236
2.96	-0.44768	0.217236
2.961	-0.525982	0.217236
2.962	-0.346299	0.217236
2.963	-0.106337	0.217236
2.964	-0.0890382	0.217617
2.965	-0.153393	0.217236
2.966	1.01039	0.217236
2.967	1.36013	0.217617
2.968	0.227926	0.217617
2.969	-1.27313	0.217236
2.97	-1.8593	0.217236
2.971	-0.159695	0.217236
2.972	0.769655	0.217236
2.973	0.853333	0.217236
2.974	0.582218	0.217236
2.975	0.18195	0.217236
2.976	-0.172286	0.217236
2.977	-0.393334	0.217236
2.978	-0.442037	0.217236
2.979	-0.329332	0.217236
2.98	-0.139445	0.217236
2.981	-0.316583	0.217236
2.982	0.186183	0.217236
2.983	1.38373	0.217236
2.984	1.29507	0.217617
2.985	-0.328963	0.217236
2.986	-1.74162	0.217236
2.987	-1.5484	0.217236
2.988	0.302432	0.217236
2.989	0.869154	0.217236
2.99	0.845487	0.217236
2.991	0.49929	0.217617
2.992	0.0531421	0.217236
2.993	-0.30755	0.217617
2.994	-0.474923	0.217236
2.995	-0.409147	0.217236
2.996	-0.211997	0.217617
2.997	-0.0556703	0.217617
2.998	-0.383729	0.217236
2.999	0.540227	0.217236
3	1.43328	0.217236
3.001	0.911958	0.217236
3.002	-0.72975	0.217236
3.003	-1.90744	0.217236
3.004	-0.955291	0.217236
3.005	0.563811	0.217236
3.006	0.867508	0.217617
3.007	0.722391	0.217236
3.008	0.371039	0.217236
3.009	-0.0488821	0.217617
3.01	-0.364074	0.217236
3.011	-0.467617	0.217236
3.012	-0.373478	0.217617
3.013	-0.181758	0.217236
3.014	-0.146832	0.217236
3.015	-0.22951	0.217236
3.016	0.98657	0.217617
3.017	1.48782	0.217617
3.018	0.401649	0.217617
3.019	-1.2466	0.217236
3.02	-1.98478	0.217617
3.021	-0.350403	0.217617
3.022	0.766494	0.217617
3.023	0.948372	0.217617
3.024	0.646593	0.217617
3.025	0.193342	0.217617
3.026	-0.189675	0.217236
3.027	-0.391446	0.217617
3.028	-0.428483	0.217617
3.029	-0.331157	0.217617
3.03	-0.144106	0.217617
3.031	-0.307607	0.217236
3.032	0.0724654	0.217617
3.033	1.28251	0.217236
3.034	1.36736	0.217236
3.035	-0.118439	0.217236
3.036	-1.63714	0.217236
3.037	-1.69016	0.217236
3.038	0.17716	0.217236
3.039	0.865522	0.217236
3.04	0.876762	0.217236
3.041	0.524302	0.217236
3.042	0.0677741	0.217236
3.043	-0.316927	0.217236
3.044	-0.486106	0.217236
3.045	-0.414748	0.217236
3.046	-0.207422	0.217236
3.047	-0.0198024	0.217236
3.048	-0.324982	0.217236
3.049	0.497801	0.217236
3.05	1.356	0.217236
3.051	0.894358	0.217236
3.052	-0.705563	0.217236
3.053	-1.83058	0.217236
3.054	-0.985281	0.217236
3.055	0.556186	0.217236
3.056	0.868438	0.217236
3.057	0.736418	0.217236
3.058	0.330122	0.217236
3.059	-0.0919936	0.217236
3.06	-0.327332	0.217236
3.061	-0.415784	0.217236
3.062	-0.342272	0.217236
3.063	-0.162594	0.217236
3.064	-0.117056	0.217236
3.065	-0.341237	0.217236
3.066	0.820707	0.217236
3.067	1.50248	0.217236
3.068	0.534653	0.217236
3.069	-1.1275	0.217236
3.07	-1.95394	0.217236
3.071	-0.388832	0.217236
3.072	0.736311	0.217236
3.073	0.852061	0.217236
3.074	0.599916	0.217236
3.075	0.20644	0.217236
3.076	-0.154478	0.217236
3.077	-0.365303	0.217236
3.078	-0.405374	0.217236
3.079	-0.279545	0.217236
3.08	-0.132391	0.217236
3.081	-0.302324	0.217236
3.082	-0.0253804	0.217236
3.083	1.20554	0.217236
3.084	1.38345	0.217617
3.085	-0.0784348	0.217236
3.086	-1.5405	0.217236
3.087	-1.67516	0.217236
3.088	0.13214	0.217236
3.089	0.820193	0.217617
3.09	0.854788	0.217617
3.091	0.534204	0.217236
3.092	0.0720386	0.217236
3.093	-0.278618	0.217236
3.094	-0.445681	0.217236
3.095	-0.435403	0.217236
3.096	-0.222764	0.217236
3.097	-0.0478201	0.217236
3.098	-0.349329	0.217236
3.099	0.43388	0.217236
3.1	1.38121	0.217236
3.101	0.980243	0.217236
3.102	-0.620943	0.217236
3.103	-1.78661	0.217236
3.104	-1.09687	0.217236
3.105	0.487259	0.217236
3.106	0.826607	0.217236
3.107	0.690073	0.217236
3.108	0.384937	0.217236
3.109	0.0452593	0.217236
3.11	-0.282774	0.217236
3.111	-0.468713	0.217236
3.112	-0.378175	0.217236
3.113	-0.174603	0.217236
3.114	-0.168213	0.217236
3.115	-0.40952	0.217236
3.116	0.838563	0.217236
3.117	1.57513	0.217236
3.118	0.633811	0.217236
3.119	-1.06227	0.217236
3.12	-1.96498	0.217236
3.121	-0.547849	0.217236
3.122	0.618308	0.217236
3.123	0.86123	0.217236
3.124	0.682617	0.217617
3.125	0.280567	0.217236
3.126	-0.10091	0.217236
3.127	-0.355053	0.217236
3.128	-0.434377	0.217617
3.129	-0.328717	0.217236
3.13	-0.158466	0.217236
3.131	-0.293097	0.217236
3.132	-0.0834488	0.217236
3.133	1.16847	0.217236
3.134	1.40679	0.217236
3.135	0.0509424	0.217236
3.136	-1.44211	0.217236
3.137	-1.71987	0.217236
3.138	0.0603654	0.217236
3.139	0.778392	0.217236
3.14	0.789262	0.217236
3.141	0.484134	0.217617
3.142	0.121811	0.217617
3.143	-0.187531	0.217617
3.144	-0.377591	0.217236
3.145	-0.397281	0.217617
3.146	-0.273461	0.217617
3.147	-0.0813397	0.217236
3.148	-0.414144	0.217617
3.149	0.290457	0.217236
3.15	1.40196	0.217617
3.151	1.14091	0.217617
3.152	-0.467503	0.217236
3.153	-1.7806	0.217617
3.154	-1.27651	0.217617
3.155	0.419693	0.217236
3.156	0.822853	0.217236
3.157	0.755474	0.217617
3.158	0.431409	0.217617
3.159	0.0197371	0.217236
3.16	-0.297092	0.217617
3.161	-0.435952	0.217236
3.162	-0.380018	0.217236
3.163	-0.21543	0.217236
3.164	-0.116366	0.217236
3.165	-0.383913	0.217236
3.166	0.735098	0.217236
3.167	1.50442	0.217236
3.168	0.712351	0.217236
3.169	-0.937791	0.217236
3.17	-1.95528	0.217236
3.171	-0.665817	0.217236
3.172	0.605209	0.217236
3.173	0.855582	0.217236
3.174	0.686454	0.217236
3.175	0.3407	0.217236
3.176	-0.0567838	0.217236
3.177	-0.364743	0.217236
3.178	-0.496287	0.217236
3.179	-0.391506	0.217617
3.18	-0.164433	0.217236
3.181	-0.20784	0.217236
3.182	-0.101381	0.217236
3.183	1.12202	0.217236
3.184	1.46395	0.217236
3.185	0.168668	0.217236
3.186	-1.41289	0.217236
3.187	-1.86288	0.217236
3.188	-0.0702576	0.217236
3.189	0.766292	0.217236
3.19	0.833403	0.217236
3.191	0.577904	0.217236
3.192	0.192568	0.217236
3.193	-0.160172	0.217236
3.194	-0.408722	0.217236
3.195	-0.478336	0.217236
3.196	-0.313182	0.217236
3.197	-0.0691398	0.217236
3.198	-0.360626	0.217236
3.199	0.218576	0.217236
3.2	1.37957	0.217236
3.201	1.26161	0.217236
3.202	-0.397724	0.217617
3.203	-1.8001	0.217617
3.204	-1.40635	0.217617
3.205	0.349021	0.217617
3.206	0.86541	0.217617
3.207	0.833307	0.217236
3.208	0.479942	0.217236
3.209	0.0186943	0.217617
3.21	-0.327852	0.217617
3.211	-0.476926	0.217236
3.212	-0.422986	0.217617
3.213	-0.206424	0.217617
3.214	-0.0435674	0.217617
3.215	-0.358363	0.217617
3.216	0.676652	0.217617
3.217	1.48272	0.217236
3.218	0.739039	0.217617
3.219	-0.930847	0.217617
3.22	-1.93822	0.217617
3.221	-0.721741	0.217236
3.222	0.654645	0.217617
3.223	0.89849	0.217617
3.224	0.672448	0.217617
3.225	0.275398	0.217617
3.226	-0.114692	0.217617
3.227	-0.388511	0.217617
3.228	-0.449401	0.217617
3.229	-0.297505	0.217617
3.23	-0.0882763	0.217617
3.231	-0.16708	0.217617
3.232	-0.216953	0.217236
3.233	0.98537	0.217617
3.234	1.4249	0.217617
3.235	0.251311	0.217617
3.236	-1.3206	0.217617
3.237	-1.87966	0.217617
3.238	-0.119535	0.217617
3.239	0.774556	0.217617
3.24	0.90468	0.217617
3.241	0.626001	0.217617
3.242	0.163134	0.217617
3.243	-0.2668	0.217617
3.244	-0.509234	0.217617
3.245	-0.443223	0.217236
3.246	-0.211515	0.217617
3.247	-0.00909298	0.217236
3.248	-0.335759	0.217236
3.249	0.154876	0.217236
3.25	1.31246	0.217617
3.251	1.24512	0.217236
3.252	-0.317927	0.217236
3.253	-1.72817	0.217236
3.254	-1.50383	0.217236
3.255	0.299143	0.217617
3.256	0.878224	0.217236
3.257	0.8596	0.217617
3.258	0.498663	0.217236
3.259	0.0398296	0.217617
3.26	-0.332098	0.217617
3.261	-0.478916	0.217236
3.262	-0.435166	0.217617
3.263	-0.202882	0.217617
3.264	-0.033792	0.217617
3.265	-0.37746	0.217617
3.266	0.599617	0.217617
3.267	1.45444	0.217617
3.268	0.843475	0.217617
3.269	-0.807866	0.217617
3.27	-1.90396	0.217617
3.271	-0.871873	0.217236
3.272	0.574115	0.217617
3.273	0.853008	0.217617
3.274	0.716671	0.217236
3.275	0.365999	0.217617
3.276	-0.0620706	0.217617
3.277	-0.376508	0.217617
3.278	-0.471145	0.217617
3.279	-0.325071	0.217617
3.28	-0.133572	0.217617
3.281	-0.18755	0.217617
3.282	-0.260049	0.217617
3.283	0.981378	0.217617
3.284	1.46661	0.217617
3.285	0.332209	0.217617
3.286	-1.24804	0.217617
3.287	-1.85779	0.217617
3.288	-0.207348	0.217617
3.289	0.733254	0.217617
3.29	0.827141	0.217617
3.291	0.552013	0.217617
3.292	0.187702	0.217617
3.293	-0.181068	0.217617
3.294	-0.386312	0.217617
3.295	-0.359479	0.217617
3.296	-0.236305	0.217617
3.297	-0.122626	0.217617
3.298	-0.398115	0.217617
3.299	0.047407	0.217617
3.3	1.29857	0.217617
3.301	1.30961	0.217617
3.302	-0.191114	0.217617
3.303	-1.61261	0.217617
3.304	-1.54591	0.217617
3.305	0.227778	0.217617
3.306	0.830278	0.217617
3.307	0.795398	0.217617
3.308	0.460279	0.217617
3.309	0.0840178	0.217617
3.31	-0.231376	0.217617
3.311	-0.423321	0.217617
3.312	-0.462829	0.217617
3.313	-0.285422	0.217617
3.314	-0.0526685	0.217617
3.315	-0.340527	0.217617
3.316	0.574951	0.217617
3.317	1.44941	0.217617
3.318	0.897456	0.217617
3.319	-0.762033	0.217617
3.32	-1.9331	0.217617
3.321	-0.986951	0.217617
3.322	0.577683	0.217617
3.323	0.920399	0.217617
3.324	0.769492	0.217617
3.325	0.371295	0.217617
3.326	-0.0918561	0.217617
3.327	-0.411444	0.217617
3.328	-0.507145	0.217617
3.329	-0.340989	0.217617
3.33	-0.105025	0.217617
3.331	-0.0884517	0.217617
3.332	-0.259301	0.217617
3.333	0.909072	0.217617
3.334	1.41986	0.217617
3.335	0.388857	0.217617
3.336	-1.18885	0.217617
3.337	-1.9231	0.217617
3.338	-0.300829	0.217617
3.339	0.771797	0.217617
3.34	0.900987	0.217617
3.341	0.598303	0.217617
3.342	0.177805	0.217617
3.343	-0.191213	0.217617
3.344	-0.407894	0.217617
3.345	-0.445598	0.217617
3.346	-0.273828	0.217617
3.347	-0.0697492	0.217617
3.348	-0.285137	0.217617
3.349	0.0424957	0.217617
3.35	1.23395	0.217617
3.351	1.31148	0.217617
3.352	-0.149328	0.217617
3.353	-1.58498	0.217617
3.354	-1.64118	0.217617
3.355	0.184339	0.217617
3.356	0.859402	0.217617
3.357	0.845455	0.217617
3.358	0.520492	0.217617
3.359	0.0863117	0.217617
3.36	-0.310515	0.217617
3.361	-0.511826	0.217617
3.362	-0.39619	0.217617
3.363	-0.150795	0.217617
3.364	-0.0411984	0.217617
3.365	-0.427575	0.217617
3.366	0.437977	0.217617
3.367	1.42861	0.217617
3.368	1.00581	0.217617
3.369	-0.658015	0.217617
3.37	-1.87024	0.217617
3.371	-1.09754	0.217617
3.372	0.506753	0.217617
3.373	0.918365	0.217236
3.374	0.790799	0.217236
3.375	0.356655	0.217236
3.376	-0.108949	0.217617
3.377	-0.392733	0.217236
3.378	-0.403875	0.217617
3.379	-0.301701	0.217236
3.38	-0.168763	0.217236
3.381	-0.131223	0.217236
3.382	-0.312981	0.217236
3.383	0.846691	0.217617
3.384	1.4397	0.217236
3.385	0.512596	0.217617
3.386	-1.09717	0.217617
3.387	-1.94415	0.217236
3.388	-0.422433	0.217617
3.389	0.721104	0.217617
3.39	0.890815	0.217617
3.391	0.662563	0.217236
3.392	0.227586	0.217617
3.393	-0.190127	0.217236
3.394	-0.415592	0.217617
3.395	-0.434716	0.217617
3.396	-0.302159	0.217236
3.397	-0.112595	0.217617
3.398	-0.256831	0.217617
3.399	-0.0217093	0.217617
3.4	1.21991	0.217617
3.401	1.37795	0.217617
3.402	-0.0445986	0.217617
3.403	-1.54246	0.217236
3.404	-1.72305	0.217617
3.405	0.111794	0.217617
3.406	0.809047	0.217617
3.407	0.843744	0.217617
3.408	0.528979	0.217617
3.409	0.111545	0.217617
3.41	-0.235961	0.217617
3.411	-0.427327	0.217617
3.412	-0.413047	0.217617
3.413	-0.243837	0.217617
3.414	-0.0932548	0.217617
3.415	-0.433395	0.217617
3.416	0.372816	0.217617
3.417	1.45059	0.217617
3.418	1.12257	0.217617
3.419	-0.547884	0.217617
3.42	-1.83919	0.217617
3.421	-1.22938	0.217617
3.422	0.42094	0.217617
3.423	0.837967	0.217617
3.424	0.791823	0.217617
3.425	0.450093	0.217617
3.426	0.0307078	0.217617
3.427	-0.32119	0.217617
3.428	-0.499557	0.217617
3.429	-0.411739	0.217617
3.43	-0.200022	0.217617
3.431	-0.105437	0.217617
3.432	-0.332105	0.217617
3.433	0.82328	0.217617
3.434	1.49458	0.217617
3.435	0.63602	0.217617
3.436	-1.03097	0.217617
3.437	-1.98892	0.217617
3.438	-0.577461	0.217617
3.439	0.669457	0.217617
3.44	0.887575	0.217617
3.441	0.673652	0.217617
3.442	0.28636	0.217617
3.443	-0.121893	0.217617
3.444	-0.411134	0.217617
3.445	-0.42696	0.217617
3.446	-0.275588	0.217617
3.447	-0.148026	0.217617
3.448	-0.305426	0.217617
3.449	-0.114126	0.217617
3.45	1.16526	0.217617
3.451	1.44511	0.217617
3.452	0.0940895	0.217617
3.453	-1.44807	0.217617
3.454	-1.79864	0.217617
3.455	-0.00663007	0.217617
3.456	0.797849	0.217617
3.457	0.863665	0.217617
3.458	0.557727	0.217617
3.459	0.128568	0.217617
3.46	-0.252971	0.217617
3.461	-0.418391	0.217617
3.462	-0.416676	0.217617
3.463	-0.265998	0.217617
3.464	-0.0828278	0.217617
3.465	-0.373271	0.217617
3.466	0.331657	0.217617
3.467	1.40474	0.217617
3.468	1.12478	0.217617
3.469	-0.511286	0.217617
3.47	-1.78923	0.217617
3.471	-1.30528	0.217617
3.472	0.423383	0.217617
3.473	0.895944	0.217617
3.474	0.790879	0.217617
3.475	0.408488	0.217617
3.476	-0.0343944	0.217617
3.477	-0.33392	0.217617
3.478	-0.419535	0.217617
3.479	-0.31244	0.217617
3.48	-0.196296	0.217617
3.481	-0.154252	0.217617
3.482	-0.412655	0.217617
3.483	0.755006	0.217617
3.484	1.51246	0.217617
3.485	0.68656	0.217617
3.486	-0.967559	0.217236
3.487	-1.90698	0.217617
3.488	-0.658862	0.217236
3.489	0.602032	0.217617
3.49	0.888977	0.217236
3.491	0.702032	0.217617
3.492	0.298919	0.217617
3.493	-0.129176	0.217236
3.494	-0.391317	0.217236
3.495	-0.470834	0.217236
3.496	-0.317223	0.217236
3.497	-0.0833164	0.217617
3.498	-0.21747	0.217617
3.499	-0.197882	0.217617
3.5	1.09939	0.217617
3.501	1.46745	0.217236
3.502	0.159946	0.217617
3.503	-1.40563	0.217236
3.504	-1.84795	0.217236
3.505	-0.0588618	0.217236
3.506	0.804622	0.217617
3.507	0.871568	0.217236
3.508	0.565811	0.217617
3.509	0.115406	0.217617
3.51	-0.24314	0.217617
3.511	-0.404569	0.217617
3.512	-0.394042	0.217617
3.513	-0.229966	0.217617
3.514	-0.0855441	0.217236
3.515	-0.383807	0.217236
3.516	0.21581	0.217617
3.517	1.32062	0.217617
3.518	1.19105	0.217617
3.519	-0.369422	0.217617
3.52	-1.69741	0.217617
3.521	-1.36594	0.217236
3.522	0.325962	0.217617
3.523	0.838752	0.217617
3.524	0.822395	0.217617
3.525	0.42178	0.217617
3.526	-0.027417	0.217617
3.527	-0.292812	0.217617
3.528	-0.420148	0.217617
3.529	-0.346811	0.217617
3.53	-0.172508	0.217617
3.531	-0.105548	0.217617
3.532	-0.460089	0.217617
3.533	0.62778	0.217236
3.534	1.50377	0.217617
3.535	0.81577	0.217617
3.536	-0.849304	0.217236
3.537	-1.9257	0.217617
3.538	-0.780316	0.217617
3.539	0.586896	0.217617
3.54	0.854609	0.217617
3.541	0.698976	0.217617
3.542	0.318312	0.217617
3.543	-0.0771359	0.217236
3.544	-0.380284	0.217617
3.545	-0.418383	0.217617
3.546	-0.267681	0.217236
3.547	-0.155888	0.217236
3.548	-0.272579	0.217617
3.549	-0.284562	0.217236
3.55	1.01053	0.217236
3.551	1.53004	0.217236
3.552	0.364619	0.217236
3.553	-1.25057	0.217236
3.554	-1.898	0.217236
3.555	-0.250877	0.217236
3.556	0.673004	0.217236
3.557	0.87944	0.217236
3.558	0.623165	0.217236
3.559	0.195808	0.217236
3.56	-0.159898	0.217236
3.561	-0.415458	0.217236
3.562	-0.446283	0.217236
3.563	-0.295492	0.217236
3.564	-0.0638272	0.217236
3.565	-0.32043	0.217236
3.566	0.141458	0.217236
3.567	1.27445	0.217236
3.568	1.21755	0.217236
3.569	-0.252228	0.217236
3.57	-1.63695	0.217236
3.571	-1.50235	0.217236
3.572	0.262441	0.217236
3.573	0.828771	0.217236
3.574	0.827849	0.217236
3.575	0.504704	0.217236
3.576	0.0516599	0.217236
3.577	-0.300143	0.217236
3.578	-0.435281	0.217236
3.579	-0.404592	0.217236
3.58	-0.25522	0.217236
3.581	-0.118887	0.217236
3.582	-0.395315	0.217236
3.583	0.620613	0.217236
3.584	1.51164	0.217236
3.585	0.893977	0.217236
3.586	-0.807366	0.217236
3.587	-1.93903	0.217236
3.588	-0.898439	0.217236
3.589	0.559445	0.217236
3.59	0.879709	0.217236
3.591	0.719625	0.217236
3.592	0.345112	0.217236
3.593	-0.0657799	0.217236
3.594	-0.35918	0.217236
3.595	-0.476179	0.217236
3.596	-0.348001	0.217236
3.597	-0.121167	0.217617
3.598	-0.150674	0.217236
3.599	-0.264722	0.217236
3.6	0.990788	0.217617
3.601	1.47177	0.217617
3.602	0.33772	0.217236
3.603	-1.27088	0.217617
3.604	-1.94853	0.217236
3.605	-0.251038	0.217236
3.606	0.793049	0.217236
3.607	0.900608	0.217236
3.608	0.612274	0.217236
3.609	0.195437	0.217236
3.61	-0.189609	0.217236
3.611	-0.429864	0.217236
3.612	-0.457824	0.217236
3.613	-0.261276	0.217236
3.614	-0.0866443	0.217236
3.615	-0.353165	0.217236
3.616	0.0643688	0.217236
3.617	1.30022	0.217236
3.618	1.34382	0.217236
3.619	-0.165148	0.217236
3.62	-1.60334	0.217236
3.621	-1.61355	0.217236
3.622	0.157097	0.217236
3.623	0.79938	0.217236
3.624	0.840826	0.217236
3.625	0.519684	0.217236
3.626	0.12259	0.217236
3.627	-0.272682	0.217236
3.628	-0.468833	0.217236
3.629	-0.375671	0.217236
3.63	-0.218377	0.217236
3.631	-0.121852	0.217236
3.632	-0.436195	0.217236
3.633	0.511412	0.217236
3.634	1.47023	0.217236
3.635	0.985424	0.217236
3.636	-0.716224	0.217236
3.637	-1.90038	0.217236
3.638	-1.0009	0.217236
3.639	0.544446	0.217236
3.64	0.880653	0.217236
3.641	0.745617	0.217236
3.642	0.35261	0.217236
3.643	-0.0841171	0.217236
3.644	-0.386482	0.217236
3.645	-0.447982	0.217236
3.646	-0.307154	0.217236
3.647	-0.126773	0.217236
3.648	-0.139945	0.217236
3.649	-0.294543	0.217236
3.65	0.91048	0.217236
3.651	1.43979	0.217236
3.652	0.39387	0.217236
3.653	-1.19254	0.217236
3.654	-1.87334	0.217236
3.655	-0.251018	0.217236
3.656	0.725406	0.217236
3.657	0.814994	0.217236
3.658	0.584154	0.217236
3.659	0.193583	0.217236
3.66	-0.164277	0.217236
3.661	-0.382972	0.217236
3.662	-0.394161	0.217236
3.663	-0.232175	0.217236
3.664	-0.111131	0.217236
3.665	-0.35573	0.217236
3.666	-0.0529962	0.217236
3.667	1.19443	0.217236
3.668	1.41602	0.217236
3.669	-0.00949745	0.217236
3.67	-1.5493	0.217236
3.671	-1.71064	0.217236
3.672	0.096227	0.217236
3.673	0.80491	0.217236
3.674	0.864798	0.217236
3.675	0.557235	0.217236
3.676	0.114892	0.217236
3.677	-0.274825	0.217236
3.678	-0.495317	0.217236
3.679	-0.446038	0.217236
3.68	-0.224875	0.217236
3.681	-0.0296108	0.217236
3.682	-0.37977	0.217236
3.683	0.458975	0.217236
3.684	1.46075	0.217236
3.685	1.01722	0.217236
3.686	-0.696358	0.217236
3.687	-1.92878	0.217236
3.688	-1.13181	0.217236
3.689	0.559973	0.217236
3.69	0.958702	0.217236
3.691	0.777351	0.217236
3.692	0.339542	0.217236
3.693	-0.0935217	0.217236
3.694	-0.360216	0.217236
3.695	-0.415825	0.217236
3.696	-0.32067	0.217236
3.697	-0.160051	0.217236
3.698	-0.152942	0.217236
3.699	-0.382024	0.217236
3.7	0.844312	0.217236
3.701	1.53219	0.217236
3.702	0.571935	0.217236
3.703	-1.10877	0.217236
3.704	-1.97236	0.217236
3.705	-0.460896	0.217236
3.706	0.689682	0.217236
3.707	0.883344	0.217236
3.708	0.659562	0.217236
3.709	0.256429	0.217236
3.71	-0.140166	0.217236
3.711	-0.395413	0.217236
3.712	-0.447554	0.217236
3.713	-0.31795	0.217236
3.714	-0.134844	0.217236
3.715	-0.276821	0.217236
3.716	-0.0444187	0.217236
3.717	1.19127	0.217236
3.718	1.39049	0.217236
3.719	0.0302939	0.217236
3.72	-1.48292	0.217236
3.721	-1.72911	0.217236
3.722	0.0475246	0.217236
3.723	0.762979	0.217236
3.724	0.876549	0.217236
3.725	0.630993	0.217236
3.726	0.145272	0.217236
3.727	-0.32858	0.217236
3.728	-0.650203	0.217236
3.729	-0.586393	0.217236
3.73	-0.206178	0.217236
3.731	0.132627	0.217236
3.732	-0.0220227	0.217236
3.733	0.892756	0.217236
3.734	1.96101	0.217236
3.735	-0.686915	0.217236
3.736	-1.87089	0.217236
3.737	-1.24548	0.217236
3.738	0.395483	0.217236
3.739	0.848119	0.217236
3.74	0.758952	0.217236
3.741	0.426329	0.217236
3.742	0.00580515	0.217236
3.743	-0.324806	0.217236
3.744	-0.426963	0.217236
3.745	-0.329118	0.217236
3.746	-0.180517	0.217236
3.747	-0.163943	0.217236
3.748	-0.436231	0.217236
3.749	0.784028	0.217236
3.75	1.53092	0.217236
3.751	0.658022	0.217236
3.752	-1.00688	0.217236
3.753	-1.93154	0.217236
3.754	-0.540817	0.217236
3.755	0.624067	0.217236
3.756	0.822817	0.217236
3.757	0.661981	0.217236
3.758	0.306243	0.217236
3.759	-0.0896662	0.217236
3.76	-0.39676	0.217236
3.761	-0.474716	0.217236
3.762	-0.316963	0.217236
3.763	-0.122599	0.217236
3.764	-0.247175	0.217236
3.765	-0.113646	0.217236
3.766	1.1571	0.217236
3.767	1.46182	0.217236
3.768	0.072675	0.217236
3.769	-1.46012	0.217236
3.77	-1.8035	0.217236
3.771	-0.0239967	0.217236
3.772	0.7525	0.217236
3.773	0.851526	0.217236
3.774	0.617595	0.217236
3.775	0.199116	0.217236
3.776	-0.21212	0.217236
3.777	-0.45672	0.217236
3.778	-0.464877	0.217236
3.779	-0.296276	0.217236
3.78	-0.073244	0.217236
3.781	-0.374057	0.217236
3.782	0.282043	0.217236
3.783	1.36116	0.217236
3.784	1.19365	0.217236
3.785	-0.377074	0.217236
3.786	-1.72421	0.217236
3.787	-1.35911	0.217236
3.788	0.305121	0.217236
3.789	0.801712	0.217236
3.79	0.812806	0.217236
3.791	0.440814	0.217236
3.792	0.00395598	0.217236
3.793	-0.263138	0.217236
3.794	-0.390456	0.217236
3.795	-0.403738	0.217236
3.796	-0.20297	0.217236
3.797	-0.0799376	0.217236
3.798	-0.427494	0.217236
3.799	0.654124	0.217236
3.8	1.44406	0.217236
3.801	0.764178	0.217236
3.802	-0.854811	0.217236
3.803	-1.89294	0.217236
3.804	-0.697321	0.217236
3.805	0.570966	0.217236
3.806	0.844528	0.217236
3.807	0.711409	0.217236
3.808	0.303659	0.217236
3.809	-0.119011	0.217236
3.81	-0.38423	0.217617
3.811	-0.440301	0.217236
3.812	-0.343375	0.217236
3.813	-0.123459	0.217236
3.814	-0.172026	0.217236
3.815	-0.1521	0.217236
3.816	1.08395	0.217236
3.817	1.4166	0.217236
3.818	0.135401	0.217236
3.819	-1.37966	0.217236
3.82	-1.81265	0.217236
3.821	-0.0761586	0.217236
3.822	0.759588	0.217236
3.823	0.860262	0.217236
3.824	0.599199	0.217236
3.825	0.181796	0.217236
3.826	-0.214903	0.217236
3.827	-0.437187	0.217236
3.828	-0.447951	0.217236
3.829	-0.290822	0.217236
3.83	-0.0690626	0.217236
3.831	-0.34706	0.217236
3.832	0.220193	0.217236
3.833	1.33779	0.217236
3.834	1.21788	0.217236
3.835	-0.35773	0.217236
3.836	-1.71785	0.217236
3.837	-1.42288	0.217236
3.838	0.294676	0.217236
3.839	0.843997	0.217236
3.84	0.862433	0.217236
3.841	0.515202	0.217236
3.842	0.0228891	0.217236
3.843	-0.370559	0.217236
3.844	-0.523181	0.217236
3.845	-0.411369	0.217617
3.846	-0.185658	0.217236
3.847	-0.0330188	0.217236
3.848	-0.328284	0.217236
3.849	0.732842	0.217236
3.85	1.49567	0.217236
3.851	0.705197	0.217236
3.852	-1.02559	0.217236
3.853	-1.9916	0.217617
3.854	-0.715476	0.217236
3.855	0.678511	0.217236
3.856	0.949058	0.217236
3.857	0.76071	0.217236
3.858	0.33102	0.217236
3.859	-0.137326	0.217236
3.86	-0.455003	0.217236
3.861	-0.517801	0.217236
3.862	-0.359903	0.217236
3.863	-0.0982295	0.217236
3.864	-0.150388	0.217236
3.865	-0.174033	0.217236
3.866	1.0897	0.217236
3.867	1.48639	0.217236
3.868	0.212085	0.217236
3.869	-1.36661	0.217236
3.87	-1.90536	0.217236
3.871	-0.153492	0.217236
3.872	0.759203	0.217236
3.873	0.863986	0.217236
3.874	0.598316	0.217236
3.875	0.236882	0.217236
3.876	-0.177387	0.217236
3.877	-0.467433	0.217236
3.878	-0.462901	0.217236
3.879	-0.272011	0.217236
3.88	-0.0663815	0.217236
3.881	-0.327495	0.217236
3.882	0.156468	0.217236
3.883	1.31104	0.217236
3.884	1.26678	0.217236
3.885	-0.312433	0.217236
3.886	-1.71047	0.217236
3.887	-1.51367	0.217236
3.888	0.307324	0.217236
3.889	0.890633	0.217236
3.89	0.838655	0.217236
3.891	0.460221	0.217236
3.892	0.0401367	0.217236
3.893	-0.277339	0.217236
3.894	-0.489291	0.217236
3.895	-0.448349	0.217236
3.896	-0.188282	0.217236
3.897	-0.0397035	0.217236
3.898	-0.41161	0.217236
3.899	0.593944	0.217236
3.9	1.47869	0.217236
3.901	0.871475	0.217236
3.902	-0.795983	0.217236
3.903	-1.89467	0.217236
3.904	-0.895792	0.217236
3.905	0.525564	0.217236
3.906	0.837761	0.217236
3.907	0.722715	0.217236
3.908	0.394898	0.217236
3.909	-0.0270516	0.217236
3.91	-0.353172	0.217236
3.911	-0.476795	0.217236
3.912	-0.361742	0.217236
3.913	-0.161589	0.217236
3.914	-0.171848	0.217236
3.915	-0.283659	0.217236
3.916	0.975836	0.217236
3.917	1.49928	0.217236
3.918	0.391894	0.217236
3.919	-1.2112	0.217236
3.92	-1.92739	0.217236
3.921	-0.317873	0.217236
3.922	0.690544	0.217236
3.923	0.898842	0.217236
3.924	0.703643	0.217236
3.925	0.229376	0.217236
3.926	-0.240523	0.217617
3.927	-0.454337	0.217236
3.928	-0.445989	0.217236
3.929	-0.282443	0.217236
3.93	-0.0673368	0.217236
3.931	-0.314268	0.217236
3.932	0.0947192	0.217236
3.933	1.29044	0.217236
3.934	1.30269	0.217617
3.935	-0.208305	0.217617
3.936	-1.62548	0.217236
3.937	-1.5816	0.217236
3.938	0.191987	0.217236
3.939	0.776232	0.217617
3.94	0.865421	0.217236
3.941	0.576365	0.217236
3.942	0.0927731	0.217617
3.943	-0.311243	0.217236
3.944	-0.495628	0.217236
3.945	-0.392264	0.217236
3.946	-0.189623	0.217617
3.947	-0.0775919	0.217617
3.948	-0.470448	0.217236
3.949	0.480287	0.217236
3.95	1.49724	0.217236
3.951	1.00316	0.217617
3.952	-0.698351	0.217617
3.953	-1.8806	0.217617
3.954	-0.975646	0.217617
3.955	0.49444	0.217617
3.956	0.781258	0.217617
3.957	0.710654	0.217617
3.958	0.410046	0.217617
3.959	0.0116209	0.217617
3.96	-0.324365	0.217617
3.961	-0.475328	0.217617
3.962	-0.378119	0.217617
3.963	-0.146051	0.217617
3.964	-0.146812	0.217617
3.965	-0.328235	0.217617
3.966	0.918521	0.217617
3.967	1.49235	0.217617
3.968	0.431276	0.217617
3.969	-1.16499	0.217617
3.97	-1.89466	0.217617
3.971	-0.347472	0.217617
3.972	0.702123	0.217617
3.973	0.876949	0.217617
3.974	0.622269	0.217617
3.975	0.201612	0.217617
3.976	-0.156383	0.217617
3.977	-0.40253	0.217617
3.978	-0.453304	0.217617
3.979	-0.274089	0.217617
3.98	-0.0892387	0.217617
3.981	-0.303976	0.217236
3.982	0.0266969	0.217617
3.983	1.23438	0.217617
3.984	1.32266	0.217617
3.985	-0.120118	0.217617
3.986	-1.53633	0.217236
3.987	-1.63554	0.217617
3.988	0.144299	0.217617
3.989	0.801276	0.217617
3.99	0.828096	0.217236
3.991	0.524121	0.217236
3.992	0.0797625	0.217236
3.993	-0.251162	0.217236
3.994	-0.426352	0.217617
3.995	-0.412304	0.217236
3.996	-0.245598	0.217236
3.997	-0.0650241	0.217236
3.998	-0.396022	0.217236
3.999	0.440408	0.217236
4	1.42105	0.217236
4.001	1.01669	0.217236
4.002	-0.632755	0.217236
4.003	-1.86589	0.217617
4.004	-1.1089	0.217236
4.005	0.497381	0.217236
4.006	0.878681	0.217236
4.007	0.766947	0.217236
4.008	0.40483	0.217236
4.009	-0.030995	0.217236
4.01	-0.359707	0.217236
4.011	-0.467903	0.217236
4.012	-0.373965	0.217236
4.013	-0.191895	0.217236
4.014	-0.112826	0.217236
4.015	-0.3081	0.217236
4.016	0.861697	0.217236
4.017	1.50927	0.217236
4.018	0.53439	0.217236
4.019	-1.10921	0.217236
4.02	-1.97302	0.217236
4.021	-0.483896	0.217236
4.022	0.727886	0.217236
4.023	0.90748	0.217236
4.024	0.636804	0.217236
4.025	0.236123	0.217236
4.026	-0.142597	0.217236
4.027	-0.377571	0.217236
4.028	-0.447116	0.217236
4.029	-0.366002	0.217236
4.03	-0.139104	0.217236
4.031	-0.209362	0.217236
4.032	0.0177761	0.217236
4.033	1.18711	0.217236
4.034	1.34284	0.217236
4.035	-0.0265096	0.217236
4.036	-1.48375	0.217236
4.037	-1.75473	0.217236
4.038	0.0513957	0.217236
4.039	0.80718	0.217236
4.04	0.87584	0.217236
4.041	0.584872	0.217236
4.042	0.135509	0.217236
4.043	-0.262736	0.217236
4.044	-0.497577	0.217236
4.045	-0.460646	0.217236
4.046	-0.228061	0.217236
4.047	-0.0272337	0.217236
4.048	-0.366954	0.217236
4.049	0.372509	0.217236
4.05	1.41496	0.217236
4.051	1.07088	0.217236
4.052	-0.595012	0.217236
4.053	-1.82529	0.217236
4.054	-1.18885	0.217236
4.055	0.442617	0.217236
4.056	0.855535	0.217236
4.057	0.816481	0.217236
4.058	0.435538	0.217236
4.059	-0.040453	0.217236
4.06	-0.356829	0.217236
4.061	-0.45712	0.217236
4.062	-0.369537	0.217236
4.063	-0.178054	0.217236
4.064	-0.0990411	0.217236
4.065	-0.382107	0.217236
4.066	0.788657	0.216855
4.067	1.51263	0.216855
4.068	0.641829	0.217236
4.069	-1.01825	0.217236
4.07	-1.97507	0.217236
4.071	-0.577618	0.217236
4.072	0.660801	0.216855
4.073	0.900185	0.217236
4.074	0.693754	0.217236
4.075	0.247641	0.216855
4.076	-0.160302	0.216855
4.077	-0.388078	0.217236
4.078	-0.440906	0.217236
4.079	-0.302082	0.217236
4.08	-0.0885843	0.217236
4.081	-0.229714	0.217236
4.082	-0.10836	0.217236
4.083	1.1282	0.217236
4.084	1.36663	0.217236
4.085	0.0361833	0.217236
4.086	-1.44449	0.217236
4.087	-1.72846	0.217236
4.088	0.0700139	0.217236
4.089	0.809206	0.217236
4.09	0.829306	0.217236
4.091	0.521317	0.217236
4.092	0.102132	0.217236
4.093	-0.270136	0.217236
4.094	-0.428833	0.217236
4.095	-0.36166	0.217236
4.096	-0.183297	0.217236
4.097	-0.073058	0.217236
4.098	-0.451294	0.217236
4.099	0.232887	0.217236
4.1	1.37293	0.217236
4.101	1.18975	0.217236
4.102	-0.409848	0.217236
4.103	-1.74466	0.217236
4.104	-1.30595	0.217236
4.105	0.373116	0.217236
4.106	0.819957	0.217236
4.107	0.738019	0.217236
4.108	0.395894	0.217236
4.109	0.0364702	0.217236
4.11	-0.271988	0.217236
4.111	-0.406	0.217236
4.112	-0.342436	0.217236
4.113	-0.191594	0.217236
4.114	-0.132262	0.217236
4.115	-0.463525	0.217236
4.116	0.691623	0.217236
4.117	1.52691	0.217236
4.118	0.747798	0.217236
4.119	-0.940564	0.217236
4.12	-1.94901	0.217236
4.121	-0.655714	0.217236
4.122	0.645138	0.217236
4.123	0.856385	0.217236
4.124	0.677262	0.217236
4.125	0.302811	0.217236
4.126	-0.134201	0.217236
4.127	-0.390955	0.217236
4.128	-0.454728	0.217236
4.129	-0.299797	0.217236
4.13	-0.0742428	0.217236
4.131	-0.188197	0.217236
4.132	-0.192344	0.217236
4.133	1.02316	0.217236
4.134	1.40896	0.217236
4.135	0.176112	0.217236
4.136	-1.36415	0.217236
4.137	-1.82777	0.217236
4.138	-0.0333915	0.217236
4.139	0.836587	0.217236
4.14	0.862576	0.217236
4.141	0.524756	0.217236
4.142	0.109984	0.217236
4.143	-0.241263	0.217236
4.144	-0.432778	0.217236
4.145	-0.428039	0.217236
4.146	-0.253421	0.217236
4.147	-0.0139054	0.217236
4.148	-0.313902	0.217236
4.149	0.194914	0.217236
4.15	1.30686	0.217236
4.151	1.19455	0.217236
4.152	-0.387092	0.217236
4.153	-1.71688	0.217236
4.154	-1.4119	0.217236
4.155	0.335663	0.217236
4.156	0.854899	0.217236
4.157	0.819837	0.217236
4.158	0.480371	0.217236
4.159	0.0329893	0.217236
4.16	-0.31582	0.217236
4.161	-0.4525	0.217236
4.162	-0.427212	0.217236
4.163	-0.26847	0.217236
4.164	-0.0654634	0.217236
4.165	-0.326091	0.217236
4.166	0.713035	0.217236
4.167	1.51995	0.217236
4.168	0.774022	0.217236
4.169	-0.967374	0.217236
4.17	-2.02187	0.217236
4.171	-0.781818	0.217236
4.172	0.65355	0.217236
4.173	0.944621	0.217236
4.174	0.769612	0.217236
4.175	0.3439	0.217236
4.176	-0.145859	0.217236
4.177	-0.473891	0.217236
4.178	-0.486462	0.217236
4.179	-0.289989	0.217236
4.18	-0.0766342	0.217236
4.181	-0.159826	0.217236
4.182	-0.205207	0.217236
4.183	1.02347	0.217236
4.184	1.39314	0.217236
4.185	0.191721	0.217236
4.186	-1.30726	0.217236
4.187	-1.82231	0.217236
4.188	-0.117789	0.217236
4.189	0.828007	0.217236
4.19	0.904281	0.217236
4.191	0.567858	0.217236
4.192	0.10378	0.217236
4.193	-0.329454	0.217236
4.194	-0.483055	0.217236
4.195	-0.346868	0.217236
4.196	-0.158031	0.217236
4.197	-0.0228764	0.217236
4.198	-0.343086	0.217236
4.199	0.122389	0.217236
4.2	1.27621	0.217236
4.201	1.20223	0.217236
4.202	-0.313772	0.217617
4.203	-1.65679	0.217236
4.204	-1.45706	0.217236
4.205	0.299444	0.217236
4.206	0.833564	0.217236
4.207	0.804558	0.217236
4.208	0.486625	0.217236
4.209	0.0616799	0.217236
4.21	-0.284761	0.217236
4.211	-0.475176	0.217236
4.212	-0.427275	0.217236
4.213	-0.202805	0.217236
4.214	-0.0443644	0.217236
4.215	-0.402768	0.217236
4.216	0.56687	0.217236
4.217	1.45915	0.217236
4.218	0.874156	0.217236
4.219	-0.771366	0.217236
4.22	-1.90692	0.217236
4.221	-0.909217	0.217236
4.222	0.556934	0.217236
4.223	0.879039	0.217236
4.224	0.731974	0.217236
4.225	0.355265	0.217236
4.226	-0.0537273	0.217236
4.227	-0.373538	0.217236
4.228	-0.485704	0.217236
4.229	-0.362983	0.217236
4.23	-0.128295	0.217236
4.231	-0.128714	0.217236
4.232	-0.292429	0.217236
4.233	0.941023	0.217236
4.234	1.52169	0.217236
4.235	0.411357	0.217617
4.236	-1.23154	0.217236
4.237	-1.95608	0.217617
4.238	-0.326498	0.217617
4.239	0.717635	0.217617
4.24	0.900446	0.217617
4.241	0.656548	0.217236
4.242	0.215354	0.217236
4.243	-0.172303	0.217617
4.244	-0.398196	0.217236
4.245	-0.4501	0.217617
4.246	-0.327974	0.217617
4.247	-0.103138	0.217617
4.248	-0.297901	0.217617
4.249	0.0632626	0.217236
4.25	1.26081	0.217236
4.251	1.33173	0.217236
4.252	-0.159066	0.217236
4.253	-1.60716	0.217236
4.254	-1.6019	0.217617
4.255	0.209448	0.217236
4.256	0.848941	0.217236
4.257	0.803205	0.217617
4.258	0.449013	0.217617
4.259	0.0672674	0.217236
4.26	-0.240771	0.217236
4.261	-0.450146	0.217617
4.262	-0.39442	0.217236
4.263	-0.142348	0.217236
4.264	-0.04235	0.217617
4.265	-0.468133	0.217617
4.266	0.411694	0.217617
4.267	1.42897	0.217617
4.268	0.997748	0.217236
4.269	-0.685859	0.217617
4.27	-1.87895	0.217236
4.271	-1.00264	0.217617
4.272	0.56085	0.217236
4.273	0.894534	0.217236
4.274	0.73359	0.217617
4.275	0.362977	0.217617
4.276	-0.080972	0.217617
4.277	-0.436173	0.217617
4.278	-0.501368	0.217617
4.279	-0.294684	0.217617
4.28	-0.0709507	0.217236
4.281	-0.0921128	0.217236
4.282	-0.310184	0.217236
4.283	0.89302	0.217236
4.284	1.44439	0.217236
4.285	0.383111	0.217617
4.286	-1.20381	0.217236
4.287	-1.9046	0.217236
4.288	-0.297012	0.217236
4.289	0.780568	0.217617
4.29	0.911583	0.217236
4.291	0.600299	0.217236
4.292	0.124201	0.217236
4.293	-0.22094	0.217236
4.294	-0.372517	0.217236
4.295	-0.389794	0.217236
4.296	-0.275327	0.217236
4.297	-0.0959924	0.217236
4.298	-0.284726	0.217236
4.299	0.0341807	0.217236
4.3	1.22326	0.217236
4.301	1.30202	0.217236
4.302	-0.139798	0.217236
4.303	-1.54577	0.217236
4.304	-1.6151	0.217236
4.305	0.155056	0.217236
4.306	0.787414	0.217236
4.307	0.830764	0.217236
4.308	0.53837	0.217236
4.309	0.107703	0.217236
4.31	-0.251688	0.217236
4.311	-0.449364	0.217236
4.312	-0.416403	0.217236
4.313	-0.22264	0.217236
4.314	-0.0624007	0.217236
4.315	-0.461095	0.217236
4.316	0.388002	0.217236
4.317	1.45414	0.217236
4.318	1.07844	0.217236
4.319	-0.5832	0.217236
4.32	-1.84622	0.217236
4.321	-1.15558	0.217236
4.322	0.471688	0.217236
4.323	0.881543	0.217236
4.324	0.761126	0.217236
4.325	0.38178	0.217236
4.326	-0.0427645	0.217236
4.327	-0.361316	0.217236
4.328	-0.4675	0.217236
4.329	-0.334882	0.217236
4.33	-0.122825	0.217236
4.331	-0.105524	0.217236
4.332	-0.373552	0.217236
4.333	0.800538	0.217236
4.334	1.47981	0.217236
4.335	0.584459	0.217236
4.336	-1.03148	0.217236
4.337	-1.944	0.217617
4.338	-0.516683	0.217236
4.339	0.646427	0.217236
4.34	0.861929	0.217236
4.341	0.667836	0.217236
4.342	0.285971	0.217236
4.343	-0.132037	0.217236
4.344	-0.393862	0.217236
4.345	-0.442906	0.217236
4.346	-0.30808	0.217236
4.347	-0.105631	0.217236
4.348	-0.269401	0.217236
4.349	-0.069555	0.217236
4.35	1.17535	0.217617
4.351	1.3848	0.217236
4.352	-0.0358455	0.217617
4.353	-1.51937	0.217236
4.354	-1.67014	0.217236
4.355	0.11135	0.217236
4.356	0.796813	0.217236
4.357	0.862471	0.217236
4.358	0.560263	0.217236
4.359	0.0746434	0.217236
4.36	-0.298008	0.217236
4.361	-0.492373	0.217236
4.362	-0.411683	0.217236
4.363	-0.171974	0.217236
4.364	-0.0172233	0.217236
4.365	-0.408411	0.217236
4.366	0.356634	0.217236
4.367	1.41259	0.217617
4.368	1.07506	0.217236
4.369	-0.558466	0.217617
4.37	-1.84785	0.217617
4.371	-1.2444	0.217617
4.372	0.441367	0.217236
4.373	0.88194	0.217617
4.374	0.847506	0.217236
4.375	0.476973	0.217617
4.376	-0.00362638	0.217236
4.377	-0.401724	0.217617
4.378	-0.520284	0.217236
4.379	-0.39995	0.217617
4.38	-0.212827	0.217236
4.381	-0.110817	0.217236
4.382	-0.299202	0.217617
4.383	0.87049	0.217236
4.384	1.55169	0.217236
4.385	0.621972	0.217617
4.386	-1.06884	0.217236
4.387	-2.00917	0.217617
4.388	-0.65961	0.217236
4.389	0.621826	0.217617
4.39	0.937814	0.217236
4.391	0.778431	0.217617
4.392	0.344134	0.217617
4.393	-0.132804	0.217236
4.394	-0.464694	0.217617
4.395	-0.544206	0.217617
4.396	-0.315583	0.217617
4.397	-0.0433758	0.217617
4.398	-0.199234	0.217617
4.399	-0.115475	0.217236
4.4	1.1078	0.217236
4.401	1.39569	0.217236
4.402	0.0902088	0.217236
4.403	-1.43998	0.217236
4.404	-1.7879	0.217236
4.405	-0.00755259	0.217236
4.406	0.776836	0.217236
4.407	0.875726	0.217236
4.408	0.595543	0.217617
4.409	0.166273	0.217236
4.41	-0.247808	0.217236
4.411	-0.498144	0.217236
4.412	-0.450383	0.217236
4.413	-0.230911	0.217236
4.414	-0.0517426	0.217236
4.415	-0.35838	0.217617
4.416	0.30026	0.217236
4.417	1.36437	0.217617
4.418	1.11906	0.217236
4.419	-0.464578	0.217236
4.42	-1.74082	0.217236
4.421	-1.29775	0.217236
4.422	0.392454	0.217617
4.423	0.851253	0.217236
4.424	0.757073	0.217236
4.425	0.423276	0.217236
4.426	0.027955	0.217236
4.427	-0.308486	0.217236
4.428	-0.456351	0.217236
4.429	-0.358999	0.217236
4.43	-0.165726	0.217236
4.431	-0.124005	0.217236
4.432	-0.457038	0.217236
4.433	0.706928	0.217236
4.434	1.52788	0.217236
4.435	0.768281	0.217236
4.436	-0.913695	0.217236
4.437	-1.93087	0.217236
4.438	-0.701223	0.217236
4.439	0.58136	0.217617
4.44	0.835768	0.217236
4.441	0.686605	0.217236
4.442	0.320799	0.217236
4.443	-0.09276	0.217236
4.444	-0.360066	0.217236
4.445	-0.423859	0.217236
4.446	-0.316062	0.217236
4.447	-0.13191	0.217236
4.448	-0.242728	0.217236
4.449	-0.206992	0.217617
4.45	1.08388	0.217236
4.451	1.45885	0.217236
4.452	0.188144	0.217236
4.453	-1.37773	0.217236
4.454	-1.83894	0.217236
4.455	-0.0729735	0.217617
4.456	0.797941	0.217617
4.457	0.873053	0.217236
4.458	0.564575	0.217236
4.459	0.121867	0.217236
4.46	-0.243991	0.217617
4.461	-0.422608	0.217617
4.462	-0.40657	0.217617
4.463	-0.240223	0.217236
4.464	-0.0388273	0.217236
4.465	-0.347365	0.217236
4.466	0.169881	0.217236
4.467	1.28204	0.217617
4.468	1.18225	0.217617
4.469	-0.347241	0.217617
4.47	-1.66473	0.217236
4.471	-1.34346	0.217617
4.472	0.347304	0.217617
4.473	0.811929	0.217617
4.474	0.731121	0.217236
4.475	0.421969	0.217617
4.476	0.026916	0.217617
4.477	-0.283051	0.217617
4.478	-0.39238	0.217617
4.479	-0.348892	0.217617
4.48	-0.206222	0.217617
4.481	-0.128751	0.217617
4.482	-0.427611	0.217617
4.483	0.658766	0.217617
4.484	1.47497	0.217617
4.485	0.78594	0.217617
4.486	-0.823469	0.217617
4.487	-1.89589	0.217617
4.488	-0.818343	0.217617
4.489	0.571474	0.217617
4.49	0.864129	0.217617
4.491	0.703814	0.217617
4.492	0.351801	0.217617
4.493	-0.0604545	0.217617
4.494	-0.388328	0.217617
4.495	-0.493234	0.217617
4.496	-0.333952	0.217617
4.497	-0.080102	0.217617
4.498	-0.164896	0.217617
4.499	-0.267967	0.217617
4.5	0.974979	0.217617
4.501	1.44877	0.217617
4.502	0.317375	0.217617
4.503	-1.24002	0.217617
4.504	-1.88085	0.217617
4.505	-0.210444	0.217617
4.506	0.721861	0.217617
4.507	0.82239	0.217617
4.508	0.607437	0.217617
4.509	0.281041	0.217617
4.51	-0.148796	0.217617
4.511	-0.44383	0.217617
4.512	-0.506996	0.217617
4.513	-0.328301	0.217617
4.514	-0.103953	0.217617
4.515	-0.311214	0.217617
4.516	0.195766	0.217617
4.517	1.35594	0.217617
4.518	1.28561	0.217617
4.519	-0.306118	0.217617
4.52	-1.73182	0.217236
4.521	-1.53201	0.217617
4.522	0.28047	0.217236
4.523	0.869972	0.217236
4.524	0.843364	0.217236
4.525	0.50311	0.217617
4.526	0.0542652	0.217617
4.527	-0.332252	0.217617
4.528	-0.508981	0.217617
4.529	-0.391448	0.217617
4.53	-0.161041	0.217617
4.531	-0.0427939	0.217617
4.532	-0.405433	0.217617
4.533	0.537551	0.217617
4.534	1.45952	0.217617
4.535	0.901518	0.217617
4.536	-0.785055	0.217617
4.537	-1.92534	0.217617
4.538	-0.895264	0.217617
4.539	0.569977	0.217617
4.54	0.86602	0.217617
4.541	0.736699	0.217617
4.542	0.337302	0.217617
4.543	-0.0819356	0.217617
4.544	-0.376433	0.217617
4.545	-0.444878	0.217617
4.546	-0.303066	0.217236
4.547	-0.121461	0.217617
4.548	-0.155996	0.217236
4.549	-0.28121	0.217617
4.55	0.920105	0.217617
4.551	1.41555	0.217236
4.552	0.352809	0.217236
4.553	-1.20694	0.217617
4.554	-1.86435	0.217236
4.555	-0.181754	0.217617
4.556	0.794388	0.217236
4.557	0.807295	0.217236
4.558	0.4993	0.217236
4.559	0.15667	0.217236
4.56	-0.143973	0.217236
4.561	-0.346429	0.217236
4.562	-0.418559	0.217617
4.563	-0.291408	0.217236
4.564	-0.107817	0.217236
4.565	-0.330941	0.217236
4.566	0.0666507	0.217236
4.567	1.27082	0.217236
4.568	1.32301	0.217236
4.569	-0.175966	0.217236
4.57	-1.58113	0.217236
4.571	-1.58508	0.217236
4.572	0.165605	0.217236
4.573	0.777739	0.217236
4.574	0.832859	0.217236
4.575	0.538174	0.217236
4.576	0.0731586	0.217617
4.577	-0.259176	0.217236
4.578	-0.407148	0.217236
4.579	-0.41896	0.217236
4.58	-0.257438	0.217236
4.581	-0.0669923	0.217236
4.582	-0.416433	0.217236
4.583	0.471122	0.217236
4.584	1.4383	0.217236
4.585	1.02205	0.217236
4.586	-0.6478	0.217617
4.587	-1.90691	0.217236
4.588	-1.06739	0.217617
4.589	0.481346	0.217236
4.59	0.872172	0.217617
4.591	0.764843	0.217617
4.592	0.405401	0.217236
4.593	-0.00439626	0.217236
4.594	-0.324641	0.217236
4.595	-0.484752	0.217617
4.596	-0.414614	0.217617
4.597	-0.199888	0.217236
4.598	-0.130697	0.217617
4.599	-0.302242	0.217617
4.6	0.908604	0.217236
4.601	1.50775	0.217617
4.602	0.498371	0.217236
4.603	-1.12647	0.217236
4.604	-1.92643	0.217236
4.605	-0.386418	0.217617
4.606	0.672669	0.217236
4.607	0.815662	0.217617
4.608	0.602025	0.217617
4.609	0.250743	0.217236
4.61	-0.106636	0.217236
4.611	-0.356476	0.217617
4.612	-0.434118	0.217236
4.613	-0.315639	0.217617
4.614	-0.108791	0.217617
4.615	-0.302345	0.217617
4.616	-0.0301145	0.217617
4.617	1.20419	0.217617
4.618	1.351	0.217617
4.619	-0.0693789	0.217617
4.62	-1.47902	0.217617
4.621	-1.63829	0.217236
4.622	0.121229	0.217236
4.623	0.779365	0.217236
4.624	0.7817	0.217236
4.625	0.468651	0.217236
4.626	0.122802	0.217236
4.627	-0.201275	0.217236
4.628	-0.394902	0.217236
4.629	-0.392409	0.217236
4.63	-0.229968	0.217236
4.631	-0.112975	0.217236
4.632	-0.459201	0.217236
4.633	0.426836	0.217236
4.634	1.42684	0.217236
4.635	1.08361	0.217236
4.636	-0.609699	0.217617
4.637	-1.88194	0.217236
4.638	-1.14374	0.217236
4.639	0.495909	0.217236
4.64	0.899257	0.217236
4.641	0.77365	0.217236
4.642	0.405484	0.217236
4.643	-0.0346204	0.217236
4.644	-0.377184	0.217236
4.645	-0.486607	0.217236
4.646	-0.378759	0.217236
4.647	-0.15819	0.217236
4.648	-0.0815584	0.217236
4.649	-0.335251	0.217236
4.65	0.849762	0.217236
4.651	1.50311	0.217236
4.652	0.542318	0.217236
4.653	-1.1279	0.217236
4.654	-1.95316	0.217236
4.655	-0.405766	0.217236
4.656	0.677034	0.217236
4.657	0.815043	0.217236
4.658	0.649392	0.217236
4.659	0.279135	0.217236
4.66	-0.118391	0.217236
4.661	-0.401207	0.217236
4.662	-0.44397	0.217236
4.663	-0.295517	0.217236
4.664	-0.121108	0.217236
4.665	-0.306863	0.217236
4.666	-0.0530213	0.217236
4.667	1.21345	0.217236
4.668	1.39696	0.217236
4.669	-0.014462	0.217236
4.67	-1.49367	0.217236
4.671	-1.7145	0.217236
4.672	0.0689352	0.217236
4.673	0.757365	0.217236
4.674	0.853001	0.217236
4.675	0.592135	0.217236
4.676	0.110823	0.217236
4.677	-0.277474	0.217236
4.678	-0.455466	0.217236
4.679	-0.41547	0.217236
4.68	-0.224948	0.217236
4.681	-0.0375429	0.217236
4.682	-0.39332	0.217236
4.683	0.328922	0.217236
4.684	1.39119	0.217236
4.685	1.10037	0.217236
4.686	-0.540378	0.217236
4.687	-1.81327	0.217236
4.688	-1.19638	0.217236
4.689	0.438812	0.217236
4.69	0.8448	0.217236
4.691	0.798765	0.217236
4.692	0.397843	0.217236
4.693	-0.0747841	0.217236
4.694	-0.311618	0.217236
4.695	-0.377115	0.217236
4.696	-0.350988	0.217236
4.697	-0.193906	0.217236
4.698	-0.147111	0.217236
4.699	-0.418296	0.217236
4.7	0.784853	0.217236
4.701	1.51618	0.217236
4.702	0.65213	0.217236
4.703	-0.988481	0.217236
4.704	-1.92098	0.217236
4.705	-0.579943	0.217236
4.706	0.630629	0.217236
4.707	0.830587	0.217617
4.708	0.65547	0.217236
4.709	0.296118	0.217236
4.71	-0.104782	0.217236
4.711	-0.371719	0.217617
4.712	-0.435605	0.217617
4.713	-0.303318	0.217617
4.714	-0.106605	0.217236
4.715	-0.280497	0.217617
4.716	-0.165328	0.217617
4.717	1.1201	0.217236
4.718	1.43556	0.217617
4.719	0.141754	0.217617
4.72	-1.39252	0.217617
4.721	-1.80289	0.217617
4.722	-0.0428091	0.217617
4.723	0.765247	0.217617
4.724	0.855323	0.217617
4.725	0.579049	0.217617
4.726	0.15196	0.217617
4.727	-0.23781	0.217617
4.728	-0.450242	0.217617
4.729	-0.439288	0.217617
4.73	-0.222041	0.217617
4.731	-0.0322452	0.217617
4.732	-0.400499	0.217617
4.733	0.246633	0.217617
4.734	1.37144	0.217617
4.735	1.17319	0.217617
4.736	-0.478584	0.217617
4.737	-1.77749	0.217617
4.738	-1.26372	0.217617
4.739	0.459061	0.217617
4.74	0.822977	0.217617
4.741	0.728135	0.217617
4.742	0.41178	0.217617
4.743	-0.00824879	0.217617
4.744	-0.325094	0.217617
4.745	-0.422873	0.217617
4.746	-0.333912	0.217617
4.747	-0.165091	0.217617
4.748	-0.0836744	0.217617
4.749	-0.412516	0.217617
4.75	0.674603	0.217617
4.751	1.46477	0.217617
4.752	0.718648	0.217617
4.753	-0.94484	0.217617
4.754	-1.91209	0.217617
4.755	-0.649526	0.217617
4.756	0.644848	0.217617
4.757	0.856659	0.217617
4.758	0.670219	0.217617
4.759	0.284989	0.217617
4.76	-0.119907	0.217617
4.761	-0.381924	0.217617
4.762	-0.441697	0.217617
4.763	-0.258469	0.217617
4.764	-0.119279	0.217617
4.765	-0.27492	0.217617
4.766	-0.198813	0.217617
4.767	1.07763	0.217617
4.768	1.46654	0.217617
4.769	0.20926	0.217617
4.77	-1.35817	0.217617
